Mar. 10, 2025   11:54:46
Cyclic Voltammetry
File: f:\catholicate college\new ruo2\ruo2 scr 0.005 [-0.1-1.1].txt
Data Source:  Experiment
Instrument Model:  CHI6087E
Header: 
Note: 

Init E (V) = -0.1
High E (V) = 1.1
Low E (V) = -0.1
Init P/N = P
Scan Rate (V/s) = 0.005
Segment = 4
Sample Interval (V) = 0.001
Quiet Time (sec) = 2
Sensitivity (A/V) = 0.01

Results:

Channel 1:
Segment 1:

Segment 2:

Segment 3:
Ep = 0.441V
ip = -2.197e-4A
Ah = -5.577e-3C

Segment 4:

Potential/V, Current/A

-0.100, 4.685e-3
-0.099, 4.457e-3
-0.098, 4.241e-3
-0.097, 4.043e-3
-0.096, 3.860e-3
-0.095, 3.692e-3
-0.094, 3.536e-3
-0.093, 3.391e-3
-0.092, 3.254e-3
-0.091, 3.125e-3
-0.090, 3.004e-3
-0.089, 2.890e-3
-0.088, 2.783e-3
-0.087, 2.679e-3
-0.086, 2.581e-3
-0.085, 2.487e-3
-0.084, 2.395e-3
-0.083, 2.309e-3
-0.082, 2.227e-3
-0.081, 2.148e-3
-0.080, 2.071e-3
-0.079, 1.998e-3
-0.078, 1.927e-3
-0.077, 1.859e-3
-0.076, 1.793e-3
-0.075, 1.730e-3
-0.074, 1.668e-3
-0.073, 1.607e-3
-0.072, 1.549e-3
-0.071, 1.493e-3
-0.070, 1.439e-3
-0.069, 1.385e-3
-0.068, 1.334e-3
-0.067, 1.285e-3
-0.066, 1.237e-3
-0.065, 1.190e-3
-0.064, 1.144e-3
-0.063, 1.099e-3
-0.062, 1.055e-3
-0.061, 1.013e-3
-0.060, 9.717e-4
-0.059, 9.313e-4
-0.058, 8.915e-4
-0.057, 8.518e-4
-0.056, 8.146e-4
-0.055, 7.774e-4
-0.054, 7.416e-4
-0.053, 7.068e-4
-0.052, 6.725e-4
-0.051, 6.390e-4
-0.050, 6.059e-4
-0.049, 5.738e-4
-0.048, 5.425e-4
-0.047, 5.118e-4
-0.046, 4.817e-4
-0.045, 4.518e-4
-0.044, 4.231e-4
-0.043, 3.949e-4
-0.042, 3.671e-4
-0.041, 3.403e-4
-0.040, 3.138e-4
-0.039, 2.875e-4
-0.038, 2.624e-4
-0.037, 2.372e-4
-0.036, 2.126e-4
-0.035, 1.890e-4
-0.034, 1.650e-4
-0.033, 1.421e-4
-0.032, 1.191e-4
-0.031, 9.654e-5
-0.030, 7.409e-5
-0.029, 5.261e-5
-0.028, 3.136e-5
-0.027, 1.073e-5
-0.026, -9.526e-6
-0.025, -3.004e-5
-0.024, -4.932e-5
-0.023, -6.816e-5
-0.022, -8.694e-5
-0.021, -1.054e-4
-0.020, -1.231e-4
-0.019, -1.408e-4
-0.018, -1.587e-4
-0.017, -1.755e-4
-0.016, -1.926e-4
-0.015, -2.087e-4
-0.014, -2.250e-4
-0.013, -2.409e-4
-0.012, -2.569e-4
-0.011, -2.718e-4
-0.010, -2.872e-4
-0.009, -3.019e-4
-0.008, -3.160e-4
-0.007, -3.290e-4
-0.006, -3.429e-4
-0.005, -3.568e-4
-0.004, -3.705e-4
-0.003, -3.832e-4
-0.002, -3.963e-4
-0.001, -4.093e-4
-0.000, -4.225e-4
0.001, -4.351e-4
0.002, -4.472e-4
0.003, -4.592e-4
0.004, -4.707e-4
0.005, -4.816e-4
0.006, -4.927e-4
0.007, -5.036e-4
0.008, -5.138e-4
0.009, -5.247e-4
0.010, -5.347e-4
0.011, -5.447e-4
0.012, -5.550e-4
0.013, -5.645e-4
0.014, -5.742e-4
0.015, -5.835e-4
0.016, -5.926e-4
0.017, -6.014e-4
0.018, -6.104e-4
0.019, -6.192e-4
0.020, -6.275e-4
0.021, -6.353e-4
0.022, -6.440e-4
0.023, -6.518e-4
0.024, -6.594e-4
0.025, -6.671e-4
0.026, -6.753e-4
0.027, -6.826e-4
0.028, -6.895e-4
0.029, -6.965e-4
0.030, -7.040e-4
0.031, -7.111e-4
0.032, -7.177e-4
0.033, -7.245e-4
0.034, -7.307e-4
0.035, -7.366e-4
0.036, -7.424e-4
0.037, -7.485e-4
0.038, -7.542e-4
0.039, -7.596e-4
0.040, -7.651e-4
0.041, -7.704e-4
0.042, -7.751e-4
0.043, -7.809e-4
0.044, -7.857e-4
0.045, -7.905e-4
0.046, -7.956e-4
0.047, -8.004e-4
0.048, -8.049e-4
0.049, -8.091e-4
0.050, -8.136e-4
0.051, -8.180e-4
0.052, -8.221e-4
0.053, -8.261e-4
0.054, -8.304e-4
0.055, -8.343e-4
0.056, -8.379e-4
0.057, -8.414e-4
0.058, -8.451e-4
0.059, -8.485e-4
0.060, -8.516e-4
0.061, -8.550e-4
0.062, -8.582e-4
0.063, -8.612e-4
0.064, -8.640e-4
0.065, -8.668e-4
0.066, -8.695e-4
0.067, -8.723e-4
0.068, -8.753e-4
0.069, -8.780e-4
0.070, -8.802e-4
0.071, -8.827e-4
0.072, -8.850e-4
0.073, -8.875e-4
0.074, -8.898e-4
0.075, -8.917e-4
0.076, -8.935e-4
0.077, -8.958e-4
0.078, -8.978e-4
0.079, -8.998e-4
0.080, -9.015e-4
0.081, -9.033e-4
0.082, -9.051e-4
0.083, -9.067e-4
0.084, -9.086e-4
0.085, -9.101e-4
0.086, -9.119e-4
0.087, -9.133e-4
0.088, -9.148e-4
0.089, -9.159e-4
0.090, -9.173e-4
0.091, -9.187e-4
0.092, -9.201e-4
0.093, -9.214e-4
0.094, -9.228e-4
0.095, -9.241e-4
0.096, -9.252e-4
0.097, -9.264e-4
0.098, -9.272e-4
0.099, -9.282e-4
0.100, -9.291e-4
0.101, -9.300e-4
0.102, -9.311e-4
0.103, -9.329e-4
0.104, -9.340e-4
0.105, -9.347e-4
0.106, -9.356e-4
0.107, -9.364e-4
0.108, -9.373e-4
0.109, -9.377e-4
0.110, -9.390e-4
0.111, -9.396e-4
0.112, -9.401e-4
0.113, -9.413e-4
0.114, -9.418e-4
0.115, -9.427e-4
0.116, -9.437e-4
0.117, -9.442e-4
0.118, -9.448e-4
0.119, -9.455e-4
0.120, -9.462e-4
0.121, -9.469e-4
0.122, -9.477e-4
0.123, -9.481e-4
0.124, -9.484e-4
0.125, -9.493e-4
0.126, -9.499e-4
0.127, -9.503e-4
0.128, -9.512e-4
0.129, -9.520e-4
0.130, -9.526e-4
0.131, -9.530e-4
0.132, -9.537e-4
0.133, -9.543e-4
0.134, -9.550e-4
0.135, -9.557e-4
0.136, -9.561e-4
0.137, -9.568e-4
0.138, -9.571e-4
0.139, -9.578e-4
0.140, -9.585e-4
0.141, -9.590e-4
0.142, -9.597e-4
0.143, -9.604e-4
0.144, -9.610e-4
0.145, -9.617e-4
0.146, -9.622e-4
0.147, -9.626e-4
0.148, -9.638e-4
0.149, -9.641e-4
0.150, -9.642e-4
0.151, -9.652e-4
0.152, -9.660e-4
0.153, -9.664e-4
0.154, -9.674e-4
0.155, -9.681e-4
0.156, -9.688e-4
0.157, -9.690e-4
0.158, -9.700e-4
0.159, -9.706e-4
0.160, -9.710e-4
0.161, -9.721e-4
0.162, -9.727e-4
0.163, -9.737e-4
0.164, -9.745e-4
0.165, -9.751e-4
0.166, -9.756e-4
0.167, -9.762e-4
0.168, -9.770e-4
0.169, -9.780e-4
0.170, -9.784e-4
0.171, -9.789e-4
0.172, -9.794e-4
0.173, -9.803e-4
0.174, -9.816e-4
0.175, -9.820e-4
0.176, -9.826e-4
0.177, -9.837e-4
0.178, -9.838e-4
0.179, -9.850e-4
0.180, -9.858e-4
0.181, -9.864e-4
0.182, -9.875e-4
0.183, -9.883e-4
0.184, -9.889e-4
0.185, -9.899e-4
0.186, -9.909e-4
0.187, -9.916e-4
0.188, -9.925e-4
0.189, -9.934e-4
0.190, -9.944e-4
0.191, -9.951e-4
0.192, -9.958e-4
0.193, -9.968e-4
0.194, -9.977e-4
0.195, -9.986e-4
0.196, -9.993e-4
0.197, -1.000e-3
0.198, -1.001e-3
0.199, -1.002e-3
0.200, -1.003e-3
0.201, -1.004e-3
0.202, -1.005e-3
0.203, -1.006e-3
0.204, -1.007e-3
0.205, -1.008e-3
0.206, -1.009e-3
0.207, -1.010e-3
0.208, -1.011e-3
0.209, -1.012e-3
0.210, -1.013e-3
0.211, -1.014e-3
0.212, -1.015e-3
0.213, -1.016e-3
0.214, -1.017e-3
0.215, -1.018e-3
0.216, -1.019e-3
0.217, -1.020e-3
0.218, -1.021e-3
0.219, -1.022e-3
0.220, -1.023e-3
0.221, -1.024e-3
0.222, -1.026e-3
0.223, -1.027e-3
0.224, -1.028e-3
0.225, -1.030e-3
0.226, -1.031e-3
0.227, -1.032e-3
0.228, -1.033e-3
0.229, -1.034e-3
0.230, -1.036e-3
0.231, -1.037e-3
0.232, -1.038e-3
0.233, -1.040e-3
0.234, -1.040e-3
0.235, -1.042e-3
0.236, -1.043e-3
0.237, -1.044e-3
0.238, -1.046e-3
0.239, -1.047e-3
0.240, -1.049e-3
0.241, -1.050e-3
0.242, -1.052e-3
0.243, -1.053e-3
0.244, -1.054e-3
0.245, -1.055e-3
0.246, -1.057e-3
0.247, -1.059e-3
0.248, -1.060e-3
0.249, -1.062e-3
0.250, -1.063e-3
0.251, -1.065e-3
0.252, -1.067e-3
0.253, -1.068e-3
0.254, -1.069e-3
0.255, -1.071e-3
0.256, -1.073e-3
0.257, -1.074e-3
0.258, -1.076e-3
0.259, -1.078e-3
0.260, -1.079e-3
0.261, -1.081e-3
0.262, -1.083e-3
0.263, -1.084e-3
0.264, -1.086e-3
0.265, -1.088e-3
0.266, -1.089e-3
0.267, -1.091e-3
0.268, -1.093e-3
0.269, -1.095e-3
0.270, -1.096e-3
0.271, -1.098e-3
0.272, -1.099e-3
0.273, -1.101e-3
0.274, -1.103e-3
0.275, -1.105e-3
0.276, -1.107e-3
0.277, -1.108e-3
0.278, -1.110e-3
0.279, -1.112e-3
0.280, -1.114e-3
0.281, -1.116e-3
0.282, -1.117e-3
0.283, -1.120e-3
0.284, -1.122e-3
0.285, -1.124e-3
0.286, -1.126e-3
0.287, -1.128e-3
0.288, -1.130e-3
0.289, -1.132e-3
0.290, -1.134e-3
0.291, -1.136e-3
0.292, -1.138e-3
0.293, -1.140e-3
0.294, -1.143e-3
0.295, -1.144e-3
0.296, -1.146e-3
0.297, -1.148e-3
0.298, -1.150e-3
0.299, -1.153e-3
0.300, -1.155e-3
0.301, -1.157e-3
0.302, -1.159e-3
0.303, -1.161e-3
0.304, -1.164e-3
0.305, -1.166e-3
0.306, -1.168e-3
0.307, -1.171e-3
0.308, -1.173e-3
0.309, -1.175e-3
0.310, -1.177e-3
0.311, -1.179e-3
0.312, -1.182e-3
0.313, -1.184e-3
0.314, -1.187e-3
0.315, -1.189e-3
0.316, -1.192e-3
0.317, -1.194e-3
0.318, -1.196e-3
0.319, -1.198e-3
0.320, -1.200e-3
0.321, -1.203e-3
0.322, -1.205e-3
0.323, -1.207e-3
0.324, -1.209e-3
0.325, -1.211e-3
0.326, -1.214e-3
0.327, -1.216e-3
0.328, -1.218e-3
0.329, -1.220e-3
0.330, -1.222e-3
0.331, -1.224e-3
0.332, -1.227e-3
0.333, -1.229e-3
0.334, -1.231e-3
0.335, -1.233e-3
0.336, -1.235e-3
0.337, -1.238e-3
0.338, -1.240e-3
0.339, -1.242e-3
0.340, -1.244e-3
0.341, -1.246e-3
0.342, -1.248e-3
0.343, -1.251e-3
0.344, -1.253e-3
0.345, -1.255e-3
0.346, -1.257e-3
0.347, -1.259e-3
0.348, -1.261e-3
0.349, -1.263e-3
0.350, -1.265e-3
0.351, -1.267e-3
0.352, -1.269e-3
0.353, -1.272e-3
0.354, -1.274e-3
0.355, -1.275e-3
0.356, -1.277e-3
0.357, -1.280e-3
0.358, -1.282e-3
0.359, -1.284e-3
0.360, -1.286e-3
0.361, -1.288e-3
0.362, -1.290e-3
0.363, -1.291e-3
0.364, -1.293e-3
0.365, -1.295e-3
0.366, -1.297e-3
0.367, -1.299e-3
0.368, -1.301e-3
0.369, -1.302e-3
0.370, -1.304e-3
0.371, -1.306e-3
0.372, -1.308e-3
0.373, -1.309e-3
0.374, -1.311e-3
0.375, -1.313e-3
0.376, -1.315e-3
0.377, -1.316e-3
0.378, -1.318e-3
0.379, -1.319e-3
0.380, -1.321e-3
0.381, -1.323e-3
0.382, -1.324e-3
0.383, -1.325e-3
0.384, -1.327e-3
0.385, -1.328e-3
0.386, -1.329e-3
0.387, -1.331e-3
0.388, -1.333e-3
0.389, -1.334e-3
0.390, -1.335e-3
0.391, -1.337e-3
0.392, -1.338e-3
0.393, -1.339e-3
0.394, -1.340e-3
0.395, -1.341e-3
0.396, -1.342e-3
0.397, -1.343e-3
0.398, -1.344e-3
0.399, -1.345e-3
0.400, -1.346e-3
0.401, -1.347e-3
0.402, -1.348e-3
0.403, -1.349e-3
0.404, -1.350e-3
0.405, -1.350e-3
0.406, -1.351e-3
0.407, -1.352e-3
0.408, -1.353e-3
0.409, -1.354e-3
0.410, -1.354e-3
0.411, -1.355e-3
0.412, -1.356e-3
0.413, -1.357e-3
0.414, -1.357e-3
0.415, -1.358e-3
0.416, -1.358e-3
0.417, -1.359e-3
0.418, -1.359e-3
0.419, -1.359e-3
0.420, -1.360e-3
0.421, -1.360e-3
0.422, -1.361e-3
0.423, -1.361e-3
0.424, -1.362e-3
0.425, -1.362e-3
0.426, -1.362e-3
0.427, -1.363e-3
0.428, -1.363e-3
0.429, -1.363e-3
0.430, -1.364e-3
0.431, -1.364e-3
0.432, -1.364e-3
0.433, -1.364e-3
0.434, -1.364e-3
0.435, -1.364e-3
0.436, -1.364e-3
0.437, -1.364e-3
0.438, -1.364e-3
0.439, -1.364e-3
0.440, -1.364e-3
0.441, -1.364e-3
0.442, -1.365e-3
0.443, -1.364e-3
0.444, -1.364e-3
0.445, -1.365e-3
0.446, -1.365e-3
0.447, -1.364e-3
0.448, -1.364e-3
0.449, -1.364e-3
0.450, -1.364e-3
0.451, -1.364e-3
0.452, -1.364e-3
0.453, -1.363e-3
0.454, -1.363e-3
0.455, -1.363e-3
0.456, -1.363e-3
0.457, -1.363e-3
0.458, -1.362e-3
0.459, -1.362e-3
0.460, -1.362e-3
0.461, -1.361e-3
0.462, -1.361e-3
0.463, -1.361e-3
0.464, -1.361e-3
0.465, -1.360e-3
0.466, -1.360e-3
0.467, -1.360e-3
0.468, -1.359e-3
0.469, -1.359e-3
0.470, -1.359e-3
0.471, -1.358e-3
0.472, -1.358e-3
0.473, -1.358e-3
0.474, -1.358e-3
0.475, -1.357e-3
0.476, -1.357e-3
0.477, -1.356e-3
0.478, -1.356e-3
0.479, -1.355e-3
0.480, -1.355e-3
0.481, -1.355e-3
0.482, -1.354e-3
0.483, -1.354e-3
0.484, -1.353e-3
0.485, -1.353e-3
0.486, -1.353e-3
0.487, -1.352e-3
0.488, -1.352e-3
0.489, -1.352e-3
0.490, -1.351e-3
0.491, -1.351e-3
0.492, -1.351e-3
0.493, -1.351e-3
0.494, -1.350e-3
0.495, -1.350e-3
0.496, -1.349e-3
0.497, -1.349e-3
0.498, -1.348e-3
0.499, -1.348e-3
0.500, -1.347e-3
0.501, -1.347e-3
0.502, -1.347e-3
0.503, -1.346e-3
0.504, -1.345e-3
0.505, -1.345e-3
0.506, -1.345e-3
0.507, -1.345e-3
0.508, -1.344e-3
0.509, -1.344e-3
0.510, -1.344e-3
0.511, -1.343e-3
0.512, -1.343e-3
0.513, -1.343e-3
0.514, -1.343e-3
0.515, -1.343e-3
0.516, -1.342e-3
0.517, -1.341e-3
0.518, -1.341e-3
0.519, -1.341e-3
0.520, -1.340e-3
0.521, -1.340e-3
0.522, -1.339e-3
0.523, -1.339e-3
0.524, -1.338e-3
0.525, -1.338e-3
0.526, -1.338e-3
0.527, -1.338e-3
0.528, -1.337e-3
0.529, -1.337e-3
0.530, -1.336e-3
0.531, -1.336e-3
0.532, -1.336e-3
0.533, -1.335e-3
0.534, -1.335e-3
0.535, -1.334e-3
0.536, -1.334e-3
0.537, -1.334e-3
0.538, -1.334e-3
0.539, -1.333e-3
0.540, -1.333e-3
0.541, -1.332e-3
0.542, -1.332e-3
0.543, -1.332e-3
0.544, -1.331e-3
0.545, -1.331e-3
0.546, -1.331e-3
0.547, -1.330e-3
0.548, -1.330e-3
0.549, -1.329e-3
0.550, -1.329e-3
0.551, -1.328e-3
0.552, -1.328e-3
0.553, -1.327e-3
0.554, -1.327e-3
0.555, -1.326e-3
0.556, -1.326e-3
0.557, -1.326e-3
0.558, -1.325e-3
0.559, -1.325e-3
0.560, -1.324e-3
0.561, -1.324e-3
0.562, -1.323e-3
0.563, -1.323e-3
0.564, -1.323e-3
0.565, -1.322e-3
0.566, -1.321e-3
0.567, -1.321e-3
0.568, -1.320e-3
0.569, -1.320e-3
0.570, -1.319e-3
0.571, -1.319e-3
0.572, -1.318e-3
0.573, -1.317e-3
0.574, -1.317e-3
0.575, -1.316e-3
0.576, -1.315e-3
0.577, -1.315e-3
0.578, -1.314e-3
0.579, -1.314e-3
0.580, -1.313e-3
0.581, -1.313e-3
0.582, -1.312e-3
0.583, -1.311e-3
0.584, -1.310e-3
0.585, -1.310e-3
0.586, -1.309e-3
0.587, -1.308e-3
0.588, -1.308e-3
0.589, -1.307e-3
0.590, -1.307e-3
0.591, -1.306e-3
0.592, -1.305e-3
0.593, -1.304e-3
0.594, -1.303e-3
0.595, -1.303e-3
0.596, -1.302e-3
0.597, -1.301e-3
0.598, -1.300e-3
0.599, -1.300e-3
0.600, -1.299e-3
0.601, -1.298e-3
0.602, -1.297e-3
0.603, -1.297e-3
0.604, -1.296e-3
0.605, -1.295e-3
0.606, -1.295e-3
0.607, -1.294e-3
0.608, -1.293e-3
0.609, -1.292e-3
0.610, -1.292e-3
0.611, -1.291e-3
0.612, -1.290e-3
0.613, -1.289e-3
0.614, -1.288e-3
0.615, -1.288e-3
0.616, -1.287e-3
0.617, -1.286e-3
0.618, -1.285e-3
0.619, -1.284e-3
0.620, -1.283e-3
0.621, -1.283e-3
0.622, -1.282e-3
0.623, -1.281e-3
0.624, -1.280e-3
0.625, -1.279e-3
0.626, -1.278e-3
0.627, -1.277e-3
0.628, -1.276e-3
0.629, -1.275e-3
0.630, -1.274e-3
0.631, -1.274e-3
0.632, -1.272e-3
0.633, -1.272e-3
0.634, -1.271e-3
0.635, -1.270e-3
0.636, -1.269e-3
0.637, -1.268e-3
0.638, -1.267e-3
0.639, -1.266e-3
0.640, -1.265e-3
0.641, -1.265e-3
0.642, -1.264e-3
0.643, -1.263e-3
0.644, -1.262e-3
0.645, -1.262e-3
0.646, -1.261e-3
0.647, -1.260e-3
0.648, -1.259e-3
0.649, -1.258e-3
0.650, -1.257e-3
0.651, -1.257e-3
0.652, -1.255e-3
0.653, -1.254e-3
0.654, -1.254e-3
0.655, -1.253e-3
0.656, -1.252e-3
0.657, -1.251e-3
0.658, -1.250e-3
0.659, -1.249e-3
0.660, -1.248e-3
0.661, -1.247e-3
0.662, -1.246e-3
0.663, -1.245e-3
0.664, -1.244e-3
0.665, -1.244e-3
0.666, -1.243e-3
0.667, -1.242e-3
0.668, -1.241e-3
0.669, -1.240e-3
0.670, -1.239e-3
0.671, -1.238e-3
0.672, -1.238e-3
0.673, -1.237e-3
0.674, -1.236e-3
0.675, -1.235e-3
0.676, -1.234e-3
0.677, -1.233e-3
0.678, -1.232e-3
0.679, -1.231e-3
0.680, -1.230e-3
0.681, -1.230e-3
0.682, -1.229e-3
0.683, -1.228e-3
0.684, -1.227e-3
0.685, -1.226e-3
0.686, -1.226e-3
0.687, -1.225e-3
0.688, -1.224e-3
0.689, -1.223e-3
0.690, -1.222e-3
0.691, -1.221e-3
0.692, -1.221e-3
0.693, -1.220e-3
0.694, -1.219e-3
0.695, -1.218e-3
0.696, -1.218e-3
0.697, -1.216e-3
0.698, -1.216e-3
0.699, -1.215e-3
0.700, -1.214e-3
0.701, -1.214e-3
0.702, -1.212e-3
0.703, -1.212e-3
0.704, -1.211e-3
0.705, -1.210e-3
0.706, -1.209e-3
0.707, -1.208e-3
0.708, -1.207e-3
0.709, -1.207e-3
0.710, -1.206e-3
0.711, -1.205e-3
0.712, -1.205e-3
0.713, -1.204e-3
0.714, -1.203e-3
0.715, -1.202e-3
0.716, -1.202e-3
0.717, -1.201e-3
0.718, -1.201e-3
0.719, -1.200e-3
0.720, -1.199e-3
0.721, -1.199e-3
0.722, -1.197e-3
0.723, -1.197e-3
0.724, -1.197e-3
0.725, -1.195e-3
0.726, -1.195e-3
0.727, -1.194e-3
0.728, -1.193e-3
0.729, -1.192e-3
0.730, -1.192e-3
0.731, -1.191e-3
0.732, -1.190e-3
0.733, -1.189e-3
0.734, -1.189e-3
0.735, -1.188e-3
0.736, -1.188e-3
0.737, -1.187e-3
0.738, -1.186e-3
0.739, -1.185e-3
0.740, -1.184e-3
0.741, -1.184e-3
0.742, -1.183e-3
0.743, -1.183e-3
0.744, -1.182e-3
0.745, -1.181e-3
0.746, -1.181e-3
0.747, -1.180e-3
0.748, -1.179e-3
0.749, -1.179e-3
0.750, -1.178e-3
0.751, -1.178e-3
0.752, -1.177e-3
0.753, -1.177e-3
0.754, -1.176e-3
0.755, -1.175e-3
0.756, -1.175e-3
0.757, -1.174e-3
0.758, -1.174e-3
0.759, -1.173e-3
0.760, -1.173e-3
0.761, -1.172e-3
0.762, -1.172e-3
0.763, -1.172e-3
0.764, -1.171e-3
0.765, -1.170e-3
0.766, -1.170e-3
0.767, -1.169e-3
0.768, -1.169e-3
0.769, -1.169e-3
0.770, -1.168e-3
0.771, -1.168e-3
0.772, -1.167e-3
0.773, -1.167e-3
0.774, -1.167e-3
0.775, -1.166e-3
0.776, -1.166e-3
0.777, -1.165e-3
0.778, -1.165e-3
0.779, -1.165e-3
0.780, -1.164e-3
0.781, -1.164e-3
0.782, -1.164e-3
0.783, -1.163e-3
0.784, -1.163e-3
0.785, -1.163e-3
0.786, -1.163e-3
0.787, -1.162e-3
0.788, -1.163e-3
0.789, -1.162e-3
0.790, -1.162e-3
0.791, -1.162e-3
0.792, -1.161e-3
0.793, -1.162e-3
0.794, -1.161e-3
0.795, -1.161e-3
0.796, -1.161e-3
0.797, -1.161e-3
0.798, -1.161e-3
0.799, -1.161e-3
0.800, -1.161e-3
0.801, -1.161e-3
0.802, -1.161e-3
0.803, -1.161e-3
0.804, -1.161e-3
0.805, -1.161e-3
0.806, -1.161e-3
0.807, -1.160e-3
0.808, -1.161e-3
0.809, -1.161e-3
0.810, -1.161e-3
0.811, -1.160e-3
0.812, -1.161e-3
0.813, -1.161e-3
0.814, -1.161e-3
0.815, -1.162e-3
0.816, -1.162e-3
0.817, -1.162e-3
0.818, -1.162e-3
0.819, -1.163e-3
0.820, -1.164e-3
0.821, -1.164e-3
0.822, -1.164e-3
0.823, -1.165e-3
0.824, -1.165e-3
0.825, -1.165e-3
0.826, -1.165e-3
0.827, -1.165e-3
0.828, -1.166e-3
0.829, -1.166e-3
0.830, -1.167e-3
0.831, -1.167e-3
0.832, -1.167e-3
0.833, -1.167e-3
0.834, -1.168e-3
0.835, -1.168e-3
0.836, -1.169e-3
0.837, -1.169e-3
0.838, -1.170e-3
0.839, -1.170e-3
0.840, -1.171e-3
0.841, -1.171e-3
0.842, -1.171e-3
0.843, -1.172e-3
0.844, -1.173e-3
0.845, -1.173e-3
0.846, -1.174e-3
0.847, -1.175e-3
0.848, -1.175e-3
0.849, -1.176e-3
0.850, -1.176e-3
0.851, -1.178e-3
0.852, -1.179e-3
0.853, -1.179e-3
0.854, -1.180e-3
0.855, -1.180e-3
0.856, -1.181e-3
0.857, -1.182e-3
0.858, -1.183e-3
0.859, -1.184e-3
0.860, -1.185e-3
0.861, -1.186e-3
0.862, -1.186e-3
0.863, -1.187e-3
0.864, -1.188e-3
0.865, -1.190e-3
0.866, -1.190e-3
0.867, -1.191e-3
0.868, -1.193e-3
0.869, -1.194e-3
0.870, -1.195e-3
0.871, -1.196e-3
0.872, -1.197e-3
0.873, -1.198e-3
0.874, -1.199e-3
0.875, -1.200e-3
0.876, -1.201e-3
0.877, -1.202e-3
0.878, -1.203e-3
0.879, -1.205e-3
0.880, -1.206e-3
0.881, -1.207e-3
0.882, -1.208e-3
0.883, -1.210e-3
0.884, -1.211e-3
0.885, -1.212e-3
0.886, -1.214e-3
0.887, -1.215e-3
0.888, -1.216e-3
0.889, -1.218e-3
0.890, -1.220e-3
0.891, -1.221e-3
0.892, -1.222e-3
0.893, -1.224e-3
0.894, -1.225e-3
0.895, -1.227e-3
0.896, -1.229e-3
0.897, -1.230e-3
0.898, -1.232e-3
0.899, -1.233e-3
0.900, -1.235e-3
0.901, -1.236e-3
0.902, -1.238e-3
0.903, -1.240e-3
0.904, -1.242e-3
0.905, -1.243e-3
0.906, -1.245e-3
0.907, -1.246e-3
0.908, -1.248e-3
0.909, -1.250e-3
0.910, -1.252e-3
0.911, -1.253e-3
0.912, -1.255e-3
0.913, -1.257e-3
0.914, -1.259e-3
0.915, -1.261e-3
0.916, -1.262e-3
0.917, -1.264e-3
0.918, -1.266e-3
0.919, -1.268e-3
0.920, -1.269e-3
0.921, -1.272e-3
0.922, -1.274e-3
0.923, -1.276e-3
0.924, -1.278e-3
0.925, -1.280e-3
0.926, -1.283e-3
0.927, -1.284e-3
0.928, -1.286e-3
0.929, -1.288e-3
0.930, -1.290e-3
0.931, -1.292e-3
0.932, -1.294e-3
0.933, -1.296e-3
0.934, -1.298e-3
0.935, -1.300e-3
0.936, -1.302e-3
0.937, -1.304e-3
0.938, -1.306e-3
0.939, -1.308e-3
0.940, -1.310e-3
0.941, -1.313e-3
0.942, -1.315e-3
0.943, -1.317e-3
0.944, -1.319e-3
0.945, -1.321e-3
0.946, -1.323e-3
0.947, -1.325e-3
0.948, -1.328e-3
0.949, -1.330e-3
0.950, -1.332e-3
0.951, -1.334e-3
0.952, -1.336e-3
0.953, -1.338e-3
0.954, -1.340e-3
0.955, -1.343e-3
0.956, -1.345e-3
0.957, -1.347e-3
0.958, -1.349e-3
0.959, -1.351e-3
0.960, -1.354e-3
0.961, -1.356e-3
0.962, -1.358e-3
0.963, -1.360e-3
0.964, -1.362e-3
0.965, -1.364e-3
0.966, -1.366e-3
0.967, -1.369e-3
0.968, -1.371e-3
0.969, -1.373e-3
0.970, -1.375e-3
0.971, -1.377e-3
0.972, -1.380e-3
0.973, -1.382e-3
0.974, -1.384e-3
0.975, -1.386e-3
0.976, -1.388e-3
0.977, -1.390e-3
0.978, -1.392e-3
0.979, -1.394e-3
0.980, -1.396e-3
0.981, -1.398e-3
0.982, -1.400e-3
0.983, -1.402e-3
0.984, -1.404e-3
0.985, -1.406e-3
0.986, -1.408e-3
0.987, -1.410e-3
0.988, -1.412e-3
0.989, -1.414e-3
0.990, -1.415e-3
0.991, -1.417e-3
0.992, -1.419e-3
0.993, -1.421e-3
0.994, -1.423e-3
0.995, -1.425e-3
0.996, -1.427e-3
0.997, -1.429e-3
0.998, -1.431e-3
0.999, -1.432e-3
1.000, -1.434e-3
1.001, -1.436e-3
1.002, -1.438e-3
1.003, -1.440e-3
1.004, -1.441e-3
1.005, -1.443e-3
1.006, -1.445e-3
1.007, -1.447e-3
1.008, -1.448e-3
1.009, -1.450e-3
1.010, -1.451e-3
1.011, -1.453e-3
1.012, -1.455e-3
1.013, -1.456e-3
1.014, -1.458e-3
1.015, -1.459e-3
1.016, -1.461e-3
1.017, -1.463e-3
1.018, -1.464e-3
1.019, -1.466e-3
1.020, -1.468e-3
1.021, -1.469e-3
1.022, -1.471e-3
1.023, -1.472e-3
1.024, -1.474e-3
1.025, -1.475e-3
1.026, -1.477e-3
1.027, -1.478e-3
1.028, -1.480e-3
1.029, -1.481e-3
1.030, -1.483e-3
1.031, -1.485e-3
1.032, -1.486e-3
1.033, -1.487e-3
1.034, -1.489e-3
1.035, -1.490e-3
1.036, -1.492e-3
1.037, -1.493e-3
1.038, -1.495e-3
1.039, -1.496e-3
1.040, -1.498e-3
1.041, -1.499e-3
1.042, -1.500e-3
1.043, -1.502e-3
1.044, -1.503e-3
1.045, -1.505e-3
1.046, -1.506e-3
1.047, -1.508e-3
1.048, -1.509e-3
1.049, -1.511e-3
1.050, -1.513e-3
1.051, -1.515e-3
1.052, -1.516e-3
1.053, -1.518e-3
1.054, -1.520e-3
1.055, -1.521e-3
1.056, -1.523e-3
1.057, -1.525e-3
1.058, -1.526e-3
1.059, -1.528e-3
1.060, -1.530e-3
1.061, -1.532e-3
1.062, -1.533e-3
1.063, -1.535e-3
1.064, -1.537e-3
1.065, -1.539e-3
1.066, -1.541e-3
1.067, -1.544e-3
1.068, -1.545e-3
1.069, -1.548e-3
1.070, -1.550e-3
1.071, -1.553e-3
1.072, -1.555e-3
1.073, -1.558e-3
1.074, -1.560e-3
1.075, -1.562e-3
1.076, -1.565e-3
1.077, -1.568e-3
1.078, -1.570e-3
1.079, -1.573e-3
1.080, -1.576e-3
1.081, -1.579e-3
1.082, -1.582e-3
1.083, -1.585e-3
1.084, -1.588e-3
1.085, -1.591e-3
1.086, -1.595e-3
1.087, -1.597e-3
1.088, -1.601e-3
1.089, -1.605e-3
1.090, -1.608e-3
1.091, -1.612e-3
1.092, -1.615e-3
1.093, -1.619e-3
1.094, -1.623e-3
1.095, -1.628e-3
1.096, -1.631e-3
1.097, -1.636e-3
1.098, -1.640e-3
1.099, -1.644e-3
1.100, -1.624e-3
1.099, -1.499e-3
1.098, -1.361e-3
1.097, -1.234e-3
1.096, -1.116e-3
1.095, -1.006e-3
1.094, -9.031e-4
1.093, -8.066e-4
1.092, -7.160e-4
1.091, -6.301e-4
1.090, -5.497e-4
1.089, -4.745e-4
1.088, -4.028e-4
1.087, -3.353e-4
1.086, -2.723e-4
1.085, -2.116e-4
1.084, -1.542e-4
1.083, -9.977e-5
1.082, -4.786e-5
1.081, 1.364e-6
1.080, 4.818e-5
1.079, 9.353e-5
1.078, 1.361e-4
1.077, 1.764e-4
1.076, 2.148e-4
1.075, 2.516e-4
1.074, 2.862e-4
1.073, 3.193e-4
1.072, 3.504e-4
1.071, 3.804e-4
1.070, 4.092e-4
1.069, 4.368e-4
1.068, 4.627e-4
1.067, 4.878e-4
1.066, 5.119e-4
1.065, 5.343e-4
1.064, 5.558e-4
1.063, 5.764e-4
1.062, 5.960e-4
1.061, 6.150e-4
1.060, 6.328e-4
1.059, 6.500e-4
1.058, 6.665e-4
1.057, 6.813e-4
1.056, 6.964e-4
1.055, 7.109e-4
1.054, 7.244e-4
1.053, 7.375e-4
1.052, 7.500e-4
1.051, 7.620e-4
1.050, 7.733e-4
1.049, 7.842e-4
1.048, 7.947e-4
1.047, 8.048e-4
1.046, 8.141e-4
1.045, 8.235e-4
1.044, 8.322e-4
1.043, 8.403e-4
1.042, 8.488e-4
1.041, 8.560e-4
1.040, 8.633e-4
1.039, 8.707e-4
1.038, 8.779e-4
1.037, 8.846e-4
1.036, 8.906e-4
1.035, 8.971e-4
1.034, 9.029e-4
1.033, 9.078e-4
1.032, 9.133e-4
1.031, 9.184e-4
1.030, 9.235e-4
1.029, 9.285e-4
1.028, 9.328e-4
1.027, 9.368e-4
1.026, 9.412e-4
1.025, 9.450e-4
1.024, 9.489e-4
1.023, 9.531e-4
1.022, 9.568e-4
1.021, 9.596e-4
1.020, 9.628e-4
1.019, 9.656e-4
1.018, 9.691e-4
1.017, 9.721e-4
1.016, 9.752e-4
1.015, 9.778e-4
1.014, 9.807e-4
1.013, 9.834e-4
1.012, 9.853e-4
1.011, 9.879e-4
1.010, 9.900e-4
1.009, 9.922e-4
1.008, 9.945e-4
1.007, 9.965e-4
1.006, 9.985e-4
1.005, 1.001e-3
1.004, 1.003e-3
1.003, 1.005e-3
1.002, 1.007e-3
1.001, 1.009e-3
1.000, 1.010e-3
0.999, 1.012e-3
0.998, 1.014e-3
0.997, 1.016e-3
0.996, 1.017e-3
0.995, 1.018e-3
0.994, 1.020e-3
0.993, 1.021e-3
0.992, 1.023e-3
0.991, 1.024e-3
0.990, 1.026e-3
0.989, 1.027e-3
0.988, 1.028e-3
0.987, 1.029e-3
0.986, 1.030e-3
0.985, 1.031e-3
0.984, 1.032e-3
0.983, 1.034e-3
0.982, 1.034e-3
0.981, 1.035e-3
0.980, 1.036e-3
0.979, 1.037e-3
0.978, 1.038e-3
0.977, 1.039e-3
0.976, 1.040e-3
0.975, 1.041e-3
0.974, 1.041e-3
0.973, 1.042e-3
0.972, 1.044e-3
0.971, 1.044e-3
0.970, 1.045e-3
0.969, 1.045e-3
0.968, 1.045e-3
0.967, 1.046e-3
0.966, 1.046e-3
0.965, 1.047e-3
0.964, 1.047e-3
0.963, 1.048e-3
0.962, 1.048e-3
0.961, 1.048e-3
0.960, 1.049e-3
0.959, 1.049e-3
0.958, 1.049e-3
0.957, 1.049e-3
0.956, 1.050e-3
0.955, 1.050e-3
0.954, 1.050e-3
0.953, 1.050e-3
0.952, 1.050e-3
0.951, 1.051e-3
0.950, 1.051e-3
0.949, 1.051e-3
0.948, 1.051e-3
0.947, 1.051e-3
0.946, 1.051e-3
0.945, 1.051e-3
0.944, 1.051e-3
0.943, 1.050e-3
0.942, 1.050e-3
0.941, 1.050e-3
0.940, 1.050e-3
0.939, 1.050e-3
0.938, 1.049e-3
0.937, 1.049e-3
0.936, 1.049e-3
0.935, 1.048e-3
0.934, 1.048e-3
0.933, 1.048e-3
0.932, 1.047e-3
0.931, 1.047e-3
0.930, 1.046e-3
0.929, 1.046e-3
0.928, 1.045e-3
0.927, 1.045e-3
0.926, 1.044e-3
0.925, 1.044e-3
0.924, 1.043e-3
0.923, 1.042e-3
0.922, 1.041e-3
0.921, 1.041e-3
0.920, 1.041e-3
0.919, 1.040e-3
0.918, 1.039e-3
0.917, 1.038e-3
0.916, 1.037e-3
0.915, 1.036e-3
0.914, 1.035e-3
0.913, 1.034e-3
0.912, 1.033e-3
0.911, 1.032e-3
0.910, 1.031e-3
0.909, 1.030e-3
0.908, 1.029e-3
0.907, 1.028e-3
0.906, 1.027e-3
0.905, 1.026e-3
0.904, 1.025e-3
0.903, 1.024e-3
0.902, 1.023e-3
0.901, 1.022e-3
0.900, 1.021e-3
0.899, 1.019e-3
0.898, 1.018e-3
0.897, 1.017e-3
0.896, 1.016e-3
0.895, 1.015e-3
0.894, 1.013e-3
0.893, 1.012e-3
0.892, 1.011e-3
0.891, 1.009e-3
0.890, 1.008e-3
0.889, 1.007e-3
0.888, 1.005e-3
0.887, 1.004e-3
0.886, 1.002e-3
0.885, 1.001e-3
0.884, 1.000e-3
0.883, 9.986e-4
0.882, 9.971e-4
0.881, 9.956e-4
0.880, 9.946e-4
0.879, 9.929e-4
0.878, 9.913e-4
0.877, 9.901e-4
0.876, 9.888e-4
0.875, 9.875e-4
0.874, 9.862e-4
0.873, 9.847e-4
0.872, 9.834e-4
0.871, 9.818e-4
0.870, 9.803e-4
0.869, 9.791e-4
0.868, 9.775e-4
0.867, 9.758e-4
0.866, 9.744e-4
0.865, 9.727e-4
0.864, 9.720e-4
0.863, 9.704e-4
0.862, 9.685e-4
0.861, 9.669e-4
0.860, 9.656e-4
0.859, 9.640e-4
0.858, 9.624e-4
0.857, 9.609e-4
0.856, 9.595e-4
0.855, 9.583e-4
0.854, 9.568e-4
0.853, 9.554e-4
0.852, 9.540e-4
0.851, 9.526e-4
0.850, 9.515e-4
0.849, 9.499e-4
0.848, 9.487e-4
0.847, 9.477e-4
0.846, 9.454e-4
0.845, 9.444e-4
0.844, 9.430e-4
0.843, 9.420e-4
0.842, 9.407e-4
0.841, 9.390e-4
0.840, 9.374e-4
0.839, 9.358e-4
0.838, 9.349e-4
0.837, 9.334e-4
0.836, 9.320e-4
0.835, 9.311e-4
0.834, 9.299e-4
0.833, 9.286e-4
0.832, 9.270e-4
0.831, 9.262e-4
0.830, 9.248e-4
0.829, 9.237e-4
0.828, 9.224e-4
0.827, 9.216e-4
0.826, 9.204e-4
0.825, 9.193e-4
0.824, 9.180e-4
0.823, 9.172e-4
0.822, 9.159e-4
0.821, 9.149e-4
0.820, 9.139e-4
0.819, 9.144e-4
0.818, 9.140e-4
0.817, 9.128e-4
0.816, 9.113e-4
0.815, 9.103e-4
0.814, 9.090e-4
0.813, 9.082e-4
0.812, 9.073e-4
0.811, 9.064e-4
0.810, 9.054e-4
0.809, 9.043e-4
0.808, 9.033e-4
0.807, 9.024e-4
0.806, 9.016e-4
0.805, 9.010e-4
0.804, 9.002e-4
0.803, 8.991e-4
0.802, 8.985e-4
0.801, 8.975e-4
0.800, 8.969e-4
0.799, 8.961e-4
0.798, 8.952e-4
0.797, 8.948e-4
0.796, 8.939e-4
0.795, 8.931e-4
0.794, 8.927e-4
0.793, 8.924e-4
0.792, 8.917e-4
0.791, 8.910e-4
0.790, 8.902e-4
0.789, 8.897e-4
0.788, 8.890e-4
0.787, 8.884e-4
0.786, 8.885e-4
0.785, 8.872e-4
0.784, 8.869e-4
0.783, 8.866e-4
0.782, 8.857e-4
0.781, 8.853e-4
0.780, 8.850e-4
0.779, 8.851e-4
0.778, 8.841e-4
0.777, 8.838e-4
0.776, 8.837e-4
0.775, 8.832e-4
0.774, 8.829e-4
0.773, 8.828e-4
0.772, 8.824e-4
0.771, 8.821e-4
0.770, 8.818e-4
0.769, 8.816e-4
0.768, 8.812e-4
0.767, 8.811e-4
0.766, 8.809e-4
0.765, 8.803e-4
0.764, 8.803e-4
0.763, 8.799e-4
0.762, 8.801e-4
0.761, 8.799e-4
0.760, 8.796e-4
0.759, 8.792e-4
0.758, 8.788e-4
0.757, 8.792e-4
0.756, 8.787e-4
0.755, 8.784e-4
0.754, 8.784e-4
0.753, 8.783e-4
0.752, 8.781e-4
0.751, 8.781e-4
0.750, 8.779e-4
0.749, 8.781e-4
0.748, 8.780e-4
0.747, 8.780e-4
0.746, 8.778e-4
0.745, 8.779e-4
0.744, 8.781e-4
0.743, 8.779e-4
0.742, 8.782e-4
0.741, 8.784e-4
0.740, 8.782e-4
0.739, 8.785e-4
0.738, 8.783e-4
0.737, 8.785e-4
0.736, 8.783e-4
0.735, 8.785e-4
0.734, 8.785e-4
0.733, 8.787e-4
0.732, 8.788e-4
0.731, 8.789e-4
0.730, 8.792e-4
0.729, 8.792e-4
0.728, 8.795e-4
0.727, 8.796e-4
0.726, 8.799e-4
0.725, 8.798e-4
0.724, 8.799e-4
0.723, 8.804e-4
0.722, 8.808e-4
0.721, 8.813e-4
0.720, 8.813e-4
0.719, 8.818e-4
0.718, 8.818e-4
0.717, 8.823e-4
0.716, 8.832e-4
0.715, 8.834e-4
0.714, 8.835e-4
0.713, 8.834e-4
0.712, 8.839e-4
0.711, 8.841e-4
0.710, 8.849e-4
0.709, 8.850e-4
0.708, 8.853e-4
0.707, 8.854e-4
0.706, 8.857e-4
0.705, 8.861e-4
0.704, 8.865e-4
0.703, 8.873e-4
0.702, 8.873e-4
0.701, 8.877e-4
0.700, 8.883e-4
0.699, 8.887e-4
0.698, 8.895e-4
0.697, 8.900e-4
0.696, 8.906e-4
0.695, 8.910e-4
0.694, 8.910e-4
0.693, 8.918e-4
0.692, 8.921e-4
0.691, 8.928e-4
0.690, 8.935e-4
0.689, 8.938e-4
0.688, 8.947e-4
0.687, 8.951e-4
0.686, 8.952e-4
0.685, 8.964e-4
0.684, 8.968e-4
0.683, 8.974e-4
0.682, 8.981e-4
0.681, 8.989e-4
0.680, 8.993e-4
0.679, 9.000e-4
0.678, 9.003e-4
0.677, 9.007e-4
0.676, 9.013e-4
0.675, 9.019e-4
0.674, 9.026e-4
0.673, 9.031e-4
0.672, 9.038e-4
0.671, 9.047e-4
0.670, 9.052e-4
0.669, 9.059e-4
0.668, 9.066e-4
0.667, 9.069e-4
0.666, 9.078e-4
0.665, 9.084e-4
0.664, 9.091e-4
0.663, 9.102e-4
0.662, 9.107e-4
0.661, 9.113e-4
0.660, 9.121e-4
0.659, 9.126e-4
0.658, 9.132e-4
0.657, 9.138e-4
0.656, 9.148e-4
0.655, 9.155e-4
0.654, 9.162e-4
0.653, 9.165e-4
0.652, 9.170e-4
0.651, 9.178e-4
0.650, 9.186e-4
0.649, 9.193e-4
0.648, 9.204e-4
0.647, 9.211e-4
0.646, 9.218e-4
0.645, 9.229e-4
0.644, 9.233e-4
0.643, 9.239e-4
0.642, 9.247e-4
0.641, 9.257e-4
0.640, 9.266e-4
0.639, 9.273e-4
0.638, 9.278e-4
0.637, 9.287e-4
0.636, 9.294e-4
0.635, 9.302e-4
0.634, 9.312e-4
0.633, 9.318e-4
0.632, 9.323e-4
0.631, 9.332e-4
0.630, 9.338e-4
0.629, 9.351e-4
0.628, 9.360e-4
0.627, 9.363e-4
0.626, 9.372e-4
0.625, 9.380e-4
0.624, 9.388e-4
0.623, 9.396e-4
0.622, 9.404e-4
0.621, 9.419e-4
0.620, 9.432e-4
0.619, 9.435e-4
0.618, 9.441e-4
0.617, 9.448e-4
0.616, 9.458e-4
0.615, 9.469e-4
0.614, 9.483e-4
0.613, 9.490e-4
0.612, 9.497e-4
0.611, 9.505e-4
0.610, 9.513e-4
0.609, 9.522e-4
0.608, 9.537e-4
0.607, 9.546e-4
0.606, 9.553e-4
0.605, 9.564e-4
0.604, 9.572e-4
0.603, 9.577e-4
0.602, 9.588e-4
0.601, 9.597e-4
0.600, 9.606e-4
0.599, 9.614e-4
0.598, 9.624e-4
0.597, 9.635e-4
0.596, 9.643e-4
0.595, 9.653e-4
0.594, 9.664e-4
0.593, 9.676e-4
0.592, 9.681e-4
0.591, 9.689e-4
0.590, 9.698e-4
0.589, 9.710e-4
0.588, 9.720e-4
0.587, 9.727e-4
0.586, 9.740e-4
0.585, 9.747e-4
0.584, 9.756e-4
0.583, 9.769e-4
0.582, 9.776e-4
0.581, 9.786e-4
0.580, 9.793e-4
0.579, 9.803e-4
0.578, 9.815e-4
0.577, 9.824e-4
0.576, 9.835e-4
0.575, 9.847e-4
0.574, 9.855e-4
0.573, 9.869e-4
0.572, 9.876e-4
0.571, 9.885e-4
0.570, 9.894e-4
0.569, 9.905e-4
0.568, 9.918e-4
0.567, 9.927e-4
0.566, 9.934e-4
0.565, 9.944e-4
0.564, 9.955e-4
0.563, 9.971e-4
0.562, 9.981e-4
0.561, 9.991e-4
0.560, 1.000e-3
0.559, 1.001e-3
0.558, 1.002e-3
0.557, 1.003e-3
0.556, 1.004e-3
0.555, 1.006e-3
0.554, 1.006e-3
0.553, 1.007e-3
0.552, 1.008e-3
0.551, 1.009e-3
0.550, 1.010e-3
0.549, 1.011e-3
0.548, 1.012e-3
0.547, 1.013e-3
0.546, 1.014e-3
0.545, 1.016e-3
0.544, 1.017e-3
0.543, 1.018e-3
0.542, 1.018e-3
0.541, 1.019e-3
0.540, 1.020e-3
0.539, 1.021e-3
0.538, 1.022e-3
0.537, 1.023e-3
0.536, 1.024e-3
0.535, 1.025e-3
0.534, 1.026e-3
0.533, 1.027e-3
0.532, 1.028e-3
0.531, 1.029e-3
0.530, 1.030e-3
0.529, 1.031e-3
0.528, 1.032e-3
0.527, 1.033e-3
0.526, 1.033e-3
0.525, 1.035e-3
0.524, 1.035e-3
0.523, 1.036e-3
0.522, 1.037e-3
0.521, 1.038e-3
0.520, 1.039e-3
0.519, 1.040e-3
0.518, 1.041e-3
0.517, 1.042e-3
0.516, 1.043e-3
0.515, 1.043e-3
0.514, 1.044e-3
0.513, 1.045e-3
0.512, 1.046e-3
0.511, 1.047e-3
0.510, 1.048e-3
0.509, 1.049e-3
0.508, 1.050e-3
0.507, 1.051e-3
0.506, 1.051e-3
0.505, 1.052e-3
0.504, 1.053e-3
0.503, 1.054e-3
0.502, 1.054e-3
0.501, 1.055e-3
0.500, 1.056e-3
0.499, 1.056e-3
0.498, 1.057e-3
0.497, 1.058e-3
0.496, 1.058e-3
0.495, 1.059e-3
0.494, 1.060e-3
0.493, 1.061e-3
0.492, 1.061e-3
0.491, 1.062e-3
0.490, 1.063e-3
0.489, 1.063e-3
0.488, 1.064e-3
0.487, 1.065e-3
0.486, 1.066e-3
0.485, 1.066e-3
0.484, 1.067e-3
0.483, 1.067e-3
0.482, 1.068e-3
0.481, 1.069e-3
0.480, 1.070e-3
0.479, 1.070e-3
0.478, 1.071e-3
0.477, 1.072e-3
0.476, 1.072e-3
0.475, 1.073e-3
0.474, 1.074e-3
0.473, 1.074e-3
0.472, 1.075e-3
0.471, 1.075e-3
0.470, 1.076e-3
0.469, 1.077e-3
0.468, 1.077e-3
0.467, 1.078e-3
0.466, 1.079e-3
0.465, 1.079e-3
0.464, 1.080e-3
0.463, 1.081e-3
0.462, 1.081e-3
0.461, 1.082e-3
0.460, 1.083e-3
0.459, 1.083e-3
0.458, 1.084e-3
0.457, 1.084e-3
0.456, 1.085e-3
0.455, 1.086e-3
0.454, 1.087e-3
0.453, 1.087e-3
0.452, 1.087e-3
0.451, 1.088e-3
0.450, 1.088e-3
0.449, 1.089e-3
0.448, 1.090e-3
0.447, 1.090e-3
0.446, 1.091e-3
0.445, 1.091e-3
0.444, 1.092e-3
0.443, 1.093e-3
0.442, 1.093e-3
0.441, 1.094e-3
0.440, 1.095e-3
0.439, 1.096e-3
0.438, 1.096e-3
0.437, 1.097e-3
0.436, 1.097e-3
0.435, 1.098e-3
0.434, 1.099e-3
0.433, 1.100e-3
0.432, 1.100e-3
0.431, 1.101e-3
0.430, 1.101e-3
0.429, 1.102e-3
0.428, 1.103e-3
0.427, 1.104e-3
0.426, 1.105e-3
0.425, 1.105e-3
0.424, 1.106e-3
0.423, 1.107e-3
0.422, 1.108e-3
0.421, 1.108e-3
0.420, 1.109e-3
0.419, 1.109e-3
0.418, 1.110e-3
0.417, 1.111e-3
0.416, 1.112e-3
0.415, 1.112e-3
0.414, 1.113e-3
0.413, 1.114e-3
0.412, 1.115e-3
0.411, 1.116e-3
0.410, 1.117e-3
0.409, 1.118e-3
0.408, 1.119e-3
0.407, 1.120e-3
0.406, 1.120e-3
0.405, 1.121e-3
0.404, 1.122e-3
0.403, 1.123e-3
0.402, 1.123e-3
0.401, 1.124e-3
0.400, 1.125e-3
0.399, 1.126e-3
0.398, 1.127e-3
0.397, 1.128e-3
0.396, 1.128e-3
0.395, 1.129e-3
0.394, 1.130e-3
0.393, 1.131e-3
0.392, 1.131e-3
0.391, 1.132e-3
0.390, 1.133e-3
0.389, 1.134e-3
0.388, 1.135e-3
0.387, 1.136e-3
0.386, 1.137e-3
0.385, 1.137e-3
0.384, 1.138e-3
0.383, 1.139e-3
0.382, 1.140e-3
0.381, 1.141e-3
0.380, 1.142e-3
0.379, 1.142e-3
0.378, 1.143e-3
0.377, 1.144e-3
0.376, 1.145e-3
0.375, 1.146e-3
0.374, 1.147e-3
0.373, 1.147e-3
0.372, 1.148e-3
0.371, 1.149e-3
0.370, 1.150e-3
0.369, 1.150e-3
0.368, 1.151e-3
0.367, 1.152e-3
0.366, 1.153e-3
0.365, 1.154e-3
0.364, 1.155e-3
0.363, 1.155e-3
0.362, 1.156e-3
0.361, 1.157e-3
0.360, 1.157e-3
0.359, 1.158e-3
0.358, 1.159e-3
0.357, 1.160e-3
0.356, 1.160e-3
0.355, 1.161e-3
0.354, 1.162e-3
0.353, 1.162e-3
0.352, 1.163e-3
0.351, 1.164e-3
0.350, 1.165e-3
0.349, 1.165e-3
0.348, 1.166e-3
0.347, 1.167e-3
0.346, 1.167e-3
0.345, 1.168e-3
0.344, 1.168e-3
0.343, 1.169e-3
0.342, 1.169e-3
0.341, 1.170e-3
0.340, 1.171e-3
0.339, 1.171e-3
0.338, 1.172e-3
0.337, 1.172e-3
0.336, 1.172e-3
0.335, 1.173e-3
0.334, 1.173e-3
0.333, 1.174e-3
0.332, 1.174e-3
0.331, 1.174e-3
0.330, 1.174e-3
0.329, 1.174e-3
0.328, 1.175e-3
0.327, 1.175e-3
0.326, 1.175e-3
0.325, 1.176e-3
0.324, 1.176e-3
0.323, 1.176e-3
0.322, 1.176e-3
0.321, 1.177e-3
0.320, 1.177e-3
0.319, 1.177e-3
0.318, 1.177e-3
0.317, 1.177e-3
0.316, 1.177e-3
0.315, 1.177e-3
0.314, 1.177e-3
0.313, 1.176e-3
0.312, 1.177e-3
0.311, 1.176e-3
0.310, 1.177e-3
0.309, 1.177e-3
0.308, 1.176e-3
0.307, 1.177e-3
0.306, 1.176e-3
0.305, 1.176e-3
0.304, 1.176e-3
0.303, 1.176e-3
0.302, 1.175e-3
0.301, 1.175e-3
0.300, 1.175e-3
0.299, 1.174e-3
0.298, 1.174e-3
0.297, 1.173e-3
0.296, 1.173e-3
0.295, 1.173e-3
0.294, 1.172e-3
0.293, 1.171e-3
0.292, 1.170e-3
0.291, 1.170e-3
0.290, 1.169e-3
0.289, 1.169e-3
0.288, 1.168e-3
0.287, 1.168e-3
0.286, 1.167e-3
0.285, 1.167e-3
0.284, 1.166e-3
0.283, 1.165e-3
0.282, 1.165e-3
0.281, 1.164e-3
0.280, 1.163e-3
0.279, 1.163e-3
0.278, 1.162e-3
0.277, 1.161e-3
0.276, 1.160e-3
0.275, 1.159e-3
0.274, 1.159e-3
0.273, 1.158e-3
0.272, 1.157e-3
0.271, 1.156e-3
0.270, 1.155e-3
0.269, 1.155e-3
0.268, 1.154e-3
0.267, 1.153e-3
0.266, 1.152e-3
0.265, 1.151e-3
0.264, 1.151e-3
0.263, 1.150e-3
0.262, 1.149e-3
0.261, 1.148e-3
0.260, 1.147e-3
0.259, 1.146e-3
0.258, 1.145e-3
0.257, 1.144e-3
0.256, 1.143e-3
0.255, 1.142e-3
0.254, 1.142e-3
0.253, 1.140e-3
0.252, 1.139e-3
0.251, 1.138e-3
0.250, 1.138e-3
0.249, 1.137e-3
0.248, 1.136e-3
0.247, 1.135e-3
0.246, 1.134e-3
0.245, 1.133e-3
0.244, 1.132e-3
0.243, 1.131e-3
0.242, 1.130e-3
0.241, 1.129e-3
0.240, 1.128e-3
0.239, 1.127e-3
0.238, 1.126e-3
0.237, 1.125e-3
0.236, 1.125e-3
0.235, 1.124e-3
0.234, 1.123e-3
0.233, 1.122e-3
0.232, 1.121e-3
0.231, 1.120e-3
0.230, 1.120e-3
0.229, 1.119e-3
0.228, 1.118e-3
0.227, 1.117e-3
0.226, 1.117e-3
0.225, 1.116e-3
0.224, 1.116e-3
0.223, 1.114e-3
0.222, 1.114e-3
0.221, 1.113e-3
0.220, 1.112e-3
0.219, 1.111e-3
0.218, 1.110e-3
0.217, 1.110e-3
0.216, 1.109e-3
0.215, 1.108e-3
0.214, 1.107e-3
0.213, 1.107e-3
0.212, 1.107e-3
0.211, 1.106e-3
0.210, 1.106e-3
0.209, 1.105e-3
0.208, 1.105e-3
0.207, 1.104e-3
0.206, 1.103e-3
0.205, 1.103e-3
0.204, 1.103e-3
0.203, 1.102e-3
0.202, 1.102e-3
0.201, 1.101e-3
0.200, 1.101e-3
0.199, 1.101e-3
0.198, 1.100e-3
0.197, 1.100e-3
0.196, 1.101e-3
0.195, 1.100e-3
0.194, 1.099e-3
0.193, 1.099e-3
0.192, 1.099e-3
0.191, 1.099e-3
0.190, 1.099e-3
0.189, 1.098e-3
0.188, 1.098e-3
0.187, 1.098e-3
0.186, 1.098e-3
0.185, 1.098e-3
0.184, 1.098e-3
0.183, 1.098e-3
0.182, 1.098e-3
0.181, 1.098e-3
0.180, 1.098e-3
0.179, 1.098e-3
0.178, 1.099e-3
0.177, 1.098e-3
0.176, 1.099e-3
0.175, 1.099e-3
0.174, 1.099e-3
0.173, 1.100e-3
0.172, 1.100e-3
0.171, 1.100e-3
0.170, 1.100e-3
0.169, 1.100e-3
0.168, 1.101e-3
0.167, 1.101e-3
0.166, 1.101e-3
0.165, 1.102e-3
0.164, 1.102e-3
0.163, 1.103e-3
0.162, 1.103e-3
0.161, 1.104e-3
0.160, 1.104e-3
0.159, 1.105e-3
0.158, 1.106e-3
0.157, 1.106e-3
0.156, 1.107e-3
0.155, 1.107e-3
0.154, 1.108e-3
0.153, 1.109e-3
0.152, 1.110e-3
0.151, 1.110e-3
0.150, 1.111e-3
0.149, 1.112e-3
0.148, 1.113e-3
0.147, 1.113e-3
0.146, 1.114e-3
0.145, 1.115e-3
0.144, 1.116e-3
0.143, 1.118e-3
0.142, 1.118e-3
0.141, 1.119e-3
0.140, 1.120e-3
0.139, 1.121e-3
0.138, 1.122e-3
0.137, 1.123e-3
0.136, 1.124e-3
0.135, 1.126e-3
0.134, 1.127e-3
0.133, 1.128e-3
0.132, 1.129e-3
0.131, 1.130e-3
0.130, 1.132e-3
0.129, 1.133e-3
0.128, 1.134e-3
0.127, 1.136e-3
0.126, 1.137e-3
0.125, 1.138e-3
0.124, 1.140e-3
0.123, 1.142e-3
0.122, 1.143e-3
0.121, 1.144e-3
0.120, 1.146e-3
0.119, 1.148e-3
0.118, 1.149e-3
0.117, 1.151e-3
0.116, 1.152e-3
0.115, 1.154e-3
0.114, 1.156e-3
0.113, 1.158e-3
0.112, 1.159e-3
0.111, 1.161e-3
0.110, 1.163e-3
0.109, 1.165e-3
0.108, 1.167e-3
0.107, 1.169e-3
0.106, 1.171e-3
0.105, 1.173e-3
0.104, 1.175e-3
0.103, 1.177e-3
0.102, 1.179e-3
0.101, 1.181e-3
0.100, 1.184e-3
0.099, 1.186e-3
0.098, 1.188e-3
0.097, 1.190e-3
0.096, 1.193e-3
0.095, 1.195e-3
0.094, 1.198e-3
0.093, 1.200e-3
0.092, 1.202e-3
0.091, 1.204e-3
0.090, 1.207e-3
0.089, 1.209e-3
0.088, 1.212e-3
0.087, 1.215e-3
0.086, 1.217e-3
0.085, 1.220e-3
0.084, 1.222e-3
0.083, 1.225e-3
0.082, 1.228e-3
0.081, 1.231e-3
0.080, 1.234e-3
0.079, 1.237e-3
0.078, 1.239e-3
0.077, 1.242e-3
0.076, 1.246e-3
0.075, 1.248e-3
0.074, 1.251e-3
0.073, 1.254e-3
0.072, 1.257e-3
0.071, 1.260e-3
0.070, 1.263e-3
0.069, 1.267e-3
0.068, 1.270e-3
0.067, 1.273e-3
0.066, 1.277e-3
0.065, 1.280e-3
0.064, 1.284e-3
0.063, 1.287e-3
0.062, 1.292e-3
0.061, 1.296e-3
0.060, 1.299e-3
0.059, 1.303e-3
0.058, 1.306e-3
0.057, 1.310e-3
0.056, 1.314e-3
0.055, 1.319e-3
0.054, 1.322e-3
0.053, 1.327e-3
0.052, 1.331e-3
0.051, 1.335e-3
0.050, 1.339e-3
0.049, 1.343e-3
0.048, 1.348e-3
0.047, 1.352e-3
0.046, 1.357e-3
0.045, 1.362e-3
0.044, 1.366e-3
0.043, 1.370e-3
0.042, 1.375e-3
0.041, 1.380e-3
0.040, 1.384e-3
0.039, 1.389e-3
0.038, 1.395e-3
0.037, 1.400e-3
0.036, 1.404e-3
0.035, 1.409e-3
0.034, 1.415e-3
0.033, 1.420e-3
0.032, 1.425e-3
0.031, 1.431e-3
0.030, 1.436e-3
0.029, 1.441e-3
0.028, 1.447e-3
0.027, 1.452e-3
0.026, 1.458e-3
0.025, 1.464e-3
0.024, 1.469e-3
0.023, 1.475e-3
0.022, 1.480e-3
0.021, 1.487e-3
0.020, 1.493e-3
0.019, 1.499e-3
0.018, 1.505e-3
0.017, 1.511e-3
0.016, 1.517e-3
0.015, 1.524e-3
0.014, 1.529e-3
0.013, 1.536e-3
0.012, 1.543e-3
0.011, 1.549e-3
0.010, 1.556e-3
0.009, 1.563e-3
0.008, 1.569e-3
0.007, 1.576e-3
0.006, 1.583e-3
0.005, 1.590e-3
0.004, 1.597e-3
0.003, 1.604e-3
0.002, 1.612e-3
0.001, 1.619e-3
0.000, 1.627e-3
-0.001, 1.634e-3
-0.002, 1.642e-3
-0.003, 1.649e-3
-0.004, 1.657e-3
-0.005, 1.665e-3
-0.006, 1.672e-3
-0.007, 1.680e-3
-0.008, 1.688e-3
-0.009, 1.696e-3
-0.010, 1.704e-3
-0.011, 1.711e-3
-0.012, 1.720e-3
-0.013, 1.727e-3
-0.014, 1.735e-3
-0.015, 1.743e-3
-0.016, 1.751e-3
-0.017, 1.759e-3
-0.018, 1.767e-3
-0.019, 1.776e-3
-0.020, 1.784e-3
-0.021, 1.792e-3
-0.022, 1.800e-3
-0.023, 1.809e-3
-0.024, 1.817e-3
-0.025, 1.826e-3
-0.026, 1.834e-3
-0.027, 1.843e-3
-0.028, 1.851e-3
-0.029, 1.860e-3
-0.030, 1.869e-3
-0.031, 1.877e-3
-0.032, 1.886e-3
-0.033, 1.894e-3
-0.034, 1.903e-3
-0.035, 1.912e-3
-0.036, 1.920e-3
-0.037, 1.929e-3
-0.038, 1.938e-3
-0.039, 1.946e-3
-0.040, 1.956e-3
-0.041, 1.964e-3
-0.042, 1.973e-3
-0.043, 1.982e-3
-0.044, 1.991e-3
-0.045, 2.000e-3
-0.046, 2.009e-3
-0.047, 2.017e-3
-0.048, 2.026e-3
-0.049, 2.035e-3
-0.050, 2.044e-3
-0.051, 2.053e-3
-0.052, 2.062e-3
-0.053, 2.072e-3
-0.054, 2.080e-3
-0.055, 2.089e-3
-0.056, 2.098e-3
-0.057, 2.107e-3
-0.058, 2.116e-3
-0.059, 2.125e-3
-0.060, 2.134e-3
-0.061, 2.143e-3
-0.062, 2.152e-3
-0.063, 2.161e-3
-0.064, 2.170e-3
-0.065, 2.178e-3
-0.066, 2.187e-3
-0.067, 2.196e-3
-0.068, 2.204e-3
-0.069, 2.213e-3
-0.070, 2.222e-3
-0.071, 2.231e-3
-0.072, 2.240e-3
-0.073, 2.248e-3
-0.074, 2.256e-3
-0.075, 2.265e-3
-0.076, 2.273e-3
-0.077, 2.281e-3
-0.078, 2.290e-3
-0.079, 2.298e-3
-0.080, 2.307e-3
-0.081, 2.316e-3
-0.082, 2.323e-3
-0.083, 2.332e-3
-0.084, 2.340e-3
-0.085, 2.349e-3
-0.086, 2.356e-3
-0.087, 2.365e-3
-0.088, 2.373e-3
-0.089, 2.381e-3
-0.090, 2.389e-3
-0.091, 2.397e-3
-0.092, 2.404e-3
-0.093, 2.413e-3
-0.094, 2.420e-3
-0.095, 2.428e-3
-0.096, 2.436e-3
-0.097, 2.444e-3
-0.098, 2.452e-3
-0.099, 2.459e-3
-0.100, 2.448e-3
-0.099, 2.362e-3
-0.098, 2.267e-3
-0.097, 2.181e-3
-0.096, 2.102e-3
-0.095, 2.026e-3
-0.094, 1.956e-3
-0.093, 1.890e-3
-0.092, 1.826e-3
-0.091, 1.765e-3
-0.090, 1.706e-3
-0.089, 1.649e-3
-0.088, 1.594e-3
-0.087, 1.542e-3
-0.086, 1.491e-3
-0.085, 1.442e-3
-0.084, 1.394e-3
-0.083, 1.348e-3
-0.082, 1.303e-3
-0.081, 1.259e-3
-0.080, 1.217e-3
-0.079, 1.175e-3
-0.078, 1.135e-3
-0.077, 1.095e-3
-0.076, 1.057e-3
-0.075, 1.019e-3
-0.074, 9.811e-4
-0.073, 9.453e-4
-0.072, 9.095e-4
-0.071, 8.741e-4
-0.070, 8.396e-4
-0.069, 8.064e-4
-0.068, 7.738e-4
-0.067, 7.421e-4
-0.066, 7.105e-4
-0.065, 6.801e-4
-0.064, 6.504e-4
-0.063, 6.205e-4
-0.062, 5.920e-4
-0.061, 5.632e-4
-0.060, 5.353e-4
-0.059, 5.079e-4
-0.058, 4.810e-4
-0.057, 4.545e-4
-0.056, 4.286e-4
-0.055, 4.031e-4
-0.054, 3.777e-4
-0.053, 3.531e-4
-0.052, 3.291e-4
-0.051, 3.053e-4
-0.050, 2.818e-4
-0.049, 2.590e-4
-0.048, 2.364e-4
-0.047, 2.143e-4
-0.046, 1.923e-4
-0.045, 1.708e-4
-0.044, 1.500e-4
-0.043, 1.289e-4
-0.042, 1.079e-4
-0.041, 8.767e-5
-0.040, 6.732e-5
-0.039, 4.810e-5
-0.038, 2.887e-5
-0.037, 9.753e-6
-0.036, -8.726e-6
-0.035, -2.699e-5
-0.034, -4.500e-5
-0.033, -6.287e-5
-0.032, -8.036e-5
-0.031, -9.753e-5
-0.030, -1.142e-4
-0.029, -1.308e-4
-0.028, -1.471e-4
-0.027, -1.631e-4
-0.026, -1.791e-4
-0.025, -1.949e-4
-0.024, -2.102e-4
-0.023, -2.254e-4
-0.022, -2.400e-4
-0.021, -2.549e-4
-0.020, -2.692e-4
-0.019, -2.838e-4
-0.018, -2.980e-4
-0.017, -3.115e-4
-0.016, -3.238e-4
-0.015, -3.369e-4
-0.014, -3.498e-4
-0.013, -3.632e-4
-0.012, -3.758e-4
-0.011, -3.881e-4
-0.010, -4.004e-4
-0.009, -4.126e-4
-0.008, -4.249e-4
-0.007, -4.365e-4
-0.006, -4.481e-4
-0.005, -4.593e-4
-0.004, -4.703e-4
-0.003, -4.817e-4
-0.002, -4.924e-4
-0.001, -5.030e-4
-0.000, -5.139e-4
0.001, -5.246e-4
0.002, -5.344e-4
0.003, -5.447e-4
0.004, -5.545e-4
0.005, -5.644e-4
0.006, -5.739e-4
0.007, -5.833e-4
0.008, -5.920e-4
0.009, -6.011e-4
0.010, -6.105e-4
0.011, -6.193e-4
0.012, -6.275e-4
0.013, -6.357e-4
0.014, -6.444e-4
0.015, -6.524e-4
0.016, -6.607e-4
0.017, -6.687e-4
0.018, -6.764e-4
0.019, -6.841e-4
0.020, -6.918e-4
0.021, -6.996e-4
0.022, -7.073e-4
0.023, -7.144e-4
0.024, -7.210e-4
0.025, -7.284e-4
0.026, -7.354e-4
0.027, -7.420e-4
0.028, -7.489e-4
0.029, -7.550e-4
0.030, -7.613e-4
0.031, -7.673e-4
0.032, -7.734e-4
0.033, -7.798e-4
0.034, -7.853e-4
0.035, -7.911e-4
0.036, -7.967e-4
0.037, -8.024e-4
0.038, -8.079e-4
0.039, -8.130e-4
0.040, -8.182e-4
0.041, -8.234e-4
0.042, -8.285e-4
0.043, -8.336e-4
0.044, -8.386e-4
0.045, -8.430e-4
0.046, -8.481e-4
0.047, -8.525e-4
0.048, -8.570e-4
0.049, -8.610e-4
0.050, -8.654e-4
0.051, -8.699e-4
0.052, -8.743e-4
0.053, -8.781e-4
0.054, -8.820e-4
0.055, -8.859e-4
0.056, -8.898e-4
0.057, -8.931e-4
0.058, -8.968e-4
0.059, -9.003e-4
0.060, -9.039e-4
0.061, -9.070e-4
0.062, -9.105e-4
0.063, -9.137e-4
0.064, -9.169e-4
0.065, -9.202e-4
0.066, -9.230e-4
0.067, -9.259e-4
0.068, -9.287e-4
0.069, -9.316e-4
0.070, -9.345e-4
0.071, -9.374e-4
0.072, -9.400e-4
0.073, -9.428e-4
0.074, -9.451e-4
0.075, -9.476e-4
0.076, -9.500e-4
0.077, -9.520e-4
0.078, -9.545e-4
0.079, -9.570e-4
0.080, -9.587e-4
0.081, -9.612e-4
0.082, -9.633e-4
0.083, -9.652e-4
0.084, -9.673e-4
0.085, -9.686e-4
0.086, -9.712e-4
0.087, -9.727e-4
0.088, -9.745e-4
0.089, -9.762e-4
0.090, -9.778e-4
0.091, -9.795e-4
0.092, -9.812e-4
0.093, -9.825e-4
0.094, -9.840e-4
0.095, -9.853e-4
0.096, -9.873e-4
0.097, -9.888e-4
0.098, -9.900e-4
0.099, -9.912e-4
0.100, -9.926e-4
0.101, -9.937e-4
0.102, -9.954e-4
0.103, -9.972e-4
0.104, -9.981e-4
0.105, -9.992e-4
0.106, -1.000e-3
0.107, -1.001e-3
0.108, -1.002e-3
0.109, -1.003e-3
0.110, -1.004e-3
0.111, -1.005e-3
0.112, -1.006e-3
0.113, -1.007e-3
0.114, -1.008e-3
0.115, -1.008e-3
0.116, -1.009e-3
0.117, -1.009e-3
0.118, -1.011e-3
0.119, -1.011e-3
0.120, -1.012e-3
0.121, -1.012e-3
0.122, -1.013e-3
0.123, -1.014e-3
0.124, -1.014e-3
0.125, -1.015e-3
0.126, -1.015e-3
0.127, -1.016e-3
0.128, -1.017e-3
0.129, -1.018e-3
0.130, -1.018e-3
0.131, -1.018e-3
0.132, -1.019e-3
0.133, -1.020e-3
0.134, -1.020e-3
0.135, -1.021e-3
0.136, -1.021e-3
0.137, -1.021e-3
0.138, -1.021e-3
0.139, -1.022e-3
0.140, -1.022e-3
0.141, -1.023e-3
0.142, -1.023e-3
0.143, -1.024e-3
0.144, -1.024e-3
0.145, -1.025e-3
0.146, -1.025e-3
0.147, -1.025e-3
0.148, -1.026e-3
0.149, -1.026e-3
0.150, -1.027e-3
0.151, -1.027e-3
0.152, -1.027e-3
0.153, -1.027e-3
0.154, -1.028e-3
0.155, -1.028e-3
0.156, -1.029e-3
0.157, -1.029e-3
0.158, -1.029e-3
0.159, -1.030e-3
0.160, -1.030e-3
0.161, -1.031e-3
0.162, -1.031e-3
0.163, -1.031e-3
0.164, -1.032e-3
0.165, -1.032e-3
0.166, -1.032e-3
0.167, -1.032e-3
0.168, -1.033e-3
0.169, -1.033e-3
0.170, -1.033e-3
0.171, -1.033e-3
0.172, -1.034e-3
0.173, -1.034e-3
0.174, -1.035e-3
0.175, -1.035e-3
0.176, -1.035e-3
0.177, -1.035e-3
0.178, -1.036e-3
0.179, -1.036e-3
0.180, -1.036e-3
0.181, -1.037e-3
0.182, -1.038e-3
0.183, -1.038e-3
0.184, -1.038e-3
0.185, -1.038e-3
0.186, -1.039e-3
0.187, -1.039e-3
0.188, -1.040e-3
0.189, -1.040e-3
0.190, -1.040e-3
0.191, -1.041e-3
0.192, -1.041e-3
0.193, -1.042e-3
0.194, -1.042e-3
0.195, -1.043e-3
0.196, -1.043e-3
0.197, -1.044e-3
0.198, -1.044e-3
0.199, -1.045e-3
0.200, -1.045e-3
0.201, -1.046e-3
0.202, -1.046e-3
0.203, -1.047e-3
0.204, -1.047e-3
0.205, -1.048e-3
0.206, -1.049e-3
0.207, -1.049e-3
0.208, -1.050e-3
0.209, -1.050e-3
0.210, -1.051e-3
0.211, -1.052e-3
0.212, -1.052e-3
0.213, -1.053e-3
0.214, -1.054e-3
0.215, -1.054e-3
0.216, -1.055e-3
0.217, -1.056e-3
0.218, -1.056e-3
0.219, -1.057e-3
0.220, -1.058e-3
0.221, -1.059e-3
0.222, -1.060e-3
0.223, -1.060e-3
0.224, -1.061e-3
0.225, -1.062e-3
0.226, -1.063e-3
0.227, -1.064e-3
0.228, -1.065e-3
0.229, -1.066e-3
0.230, -1.067e-3
0.231, -1.067e-3
0.232, -1.068e-3
0.233, -1.069e-3
0.234, -1.070e-3
0.235, -1.071e-3
0.236, -1.072e-3
0.237, -1.073e-3
0.238, -1.074e-3
0.239, -1.075e-3
0.240, -1.076e-3
0.241, -1.077e-3
0.242, -1.078e-3
0.243, -1.079e-3
0.244, -1.080e-3
0.245, -1.081e-3
0.246, -1.083e-3
0.247, -1.084e-3
0.248, -1.085e-3
0.249, -1.086e-3
0.250, -1.087e-3
0.251, -1.089e-3
0.252, -1.090e-3
0.253, -1.091e-3
0.254, -1.093e-3
0.255, -1.094e-3
0.256, -1.095e-3
0.257, -1.097e-3
0.258, -1.098e-3
0.259, -1.099e-3
0.260, -1.100e-3
0.261, -1.102e-3
0.262, -1.103e-3
0.263, -1.105e-3
0.264, -1.106e-3
0.265, -1.108e-3
0.266, -1.109e-3
0.267, -1.110e-3
0.268, -1.112e-3
0.269, -1.113e-3
0.270, -1.115e-3
0.271, -1.116e-3
0.272, -1.118e-3
0.273, -1.120e-3
0.274, -1.121e-3
0.275, -1.123e-3
0.276, -1.125e-3
0.277, -1.126e-3
0.278, -1.128e-3
0.279, -1.130e-3
0.280, -1.132e-3
0.281, -1.133e-3
0.282, -1.135e-3
0.283, -1.137e-3
0.284, -1.139e-3
0.285, -1.141e-3
0.286, -1.143e-3
0.287, -1.144e-3
0.288, -1.146e-3
0.289, -1.148e-3
0.290, -1.149e-3
0.291, -1.151e-3
0.292, -1.153e-3
0.293, -1.155e-3
0.294, -1.157e-3
0.295, -1.159e-3
0.296, -1.161e-3
0.297, -1.163e-3
0.298, -1.165e-3
0.299, -1.167e-3
0.300, -1.169e-3
0.301, -1.171e-3
0.302, -1.173e-3
0.303, -1.175e-3
0.304, -1.177e-3
0.305, -1.179e-3
0.306, -1.180e-3
0.307, -1.183e-3
0.308, -1.186e-3
0.309, -1.188e-3
0.310, -1.190e-3
0.311, -1.192e-3
0.312, -1.194e-3
0.313, -1.196e-3
0.314, -1.198e-3
0.315, -1.200e-3
0.316, -1.202e-3
0.317, -1.204e-3
0.318, -1.206e-3
0.319, -1.208e-3
0.320, -1.210e-3
0.321, -1.213e-3
0.322, -1.214e-3
0.323, -1.217e-3
0.324, -1.219e-3
0.325, -1.221e-3
0.326, -1.223e-3
0.327, -1.225e-3
0.328, -1.227e-3
0.329, -1.229e-3
0.330, -1.232e-3
0.331, -1.234e-3
0.332, -1.236e-3
0.333, -1.238e-3
0.334, -1.239e-3
0.335, -1.241e-3
0.336, -1.244e-3
0.337, -1.246e-3
0.338, -1.248e-3
0.339, -1.250e-3
0.340, -1.252e-3
0.341, -1.255e-3
0.342, -1.257e-3
0.343, -1.260e-3
0.344, -1.261e-3
0.345, -1.263e-3
0.346, -1.265e-3
0.347, -1.267e-3
0.348, -1.270e-3
0.349, -1.272e-3
0.350, -1.274e-3
0.351, -1.276e-3
0.352, -1.278e-3
0.353, -1.281e-3
0.354, -1.282e-3
0.355, -1.285e-3
0.356, -1.286e-3
0.357, -1.288e-3
0.358, -1.291e-3
0.359, -1.293e-3
0.360, -1.294e-3
0.361, -1.296e-3
0.362, -1.298e-3
0.363, -1.300e-3
0.364, -1.302e-3
0.365, -1.304e-3
0.366, -1.306e-3
0.367, -1.307e-3
0.368, -1.309e-3
0.369, -1.311e-3
0.370, -1.313e-3
0.371, -1.315e-3
0.372, -1.316e-3
0.373, -1.317e-3
0.374, -1.319e-3
0.375, -1.321e-3
0.376, -1.322e-3
0.377, -1.324e-3
0.378, -1.326e-3
0.379, -1.328e-3
0.380, -1.329e-3
0.381, -1.330e-3
0.382, -1.331e-3
0.383, -1.333e-3
0.384, -1.334e-3
0.385, -1.336e-3
0.386, -1.337e-3
0.387, -1.339e-3
0.388, -1.340e-3
0.389, -1.341e-3
0.390, -1.342e-3
0.391, -1.343e-3
0.392, -1.345e-3
0.393, -1.346e-3
0.394, -1.347e-3
0.395, -1.348e-3
0.396, -1.349e-3
0.397, -1.350e-3
0.398, -1.351e-3
0.399, -1.352e-3
0.400, -1.353e-3
0.401, -1.354e-3
0.402, -1.355e-3
0.403, -1.356e-3
0.404, -1.357e-3
0.405, -1.358e-3
0.406, -1.359e-3
0.407, -1.360e-3
0.408, -1.361e-3
0.409, -1.361e-3
0.410, -1.362e-3
0.411, -1.363e-3
0.412, -1.363e-3
0.413, -1.364e-3
0.414, -1.364e-3
0.415, -1.365e-3
0.416, -1.365e-3
0.417, -1.366e-3
0.418, -1.366e-3
0.419, -1.366e-3
0.420, -1.367e-3
0.421, -1.367e-3
0.422, -1.368e-3
0.423, -1.368e-3
0.424, -1.368e-3
0.425, -1.368e-3
0.426, -1.369e-3
0.427, -1.369e-3
0.428, -1.369e-3
0.429, -1.369e-3
0.430, -1.369e-3
0.431, -1.369e-3
0.432, -1.370e-3
0.433, -1.370e-3
0.434, -1.370e-3
0.435, -1.371e-3
0.436, -1.371e-3
0.437, -1.370e-3
0.438, -1.370e-3
0.439, -1.371e-3
0.440, -1.370e-3
0.441, -1.371e-3
0.442, -1.371e-3
0.443, -1.370e-3
0.444, -1.370e-3
0.445, -1.370e-3
0.446, -1.370e-3
0.447, -1.370e-3
0.448, -1.370e-3
0.449, -1.369e-3
0.450, -1.369e-3
0.451, -1.369e-3
0.452, -1.368e-3
0.453, -1.368e-3
0.454, -1.368e-3
0.455, -1.368e-3
0.456, -1.368e-3
0.457, -1.367e-3
0.458, -1.367e-3
0.459, -1.367e-3
0.460, -1.366e-3
0.461, -1.366e-3
0.462, -1.366e-3
0.463, -1.366e-3
0.464, -1.366e-3
0.465, -1.365e-3
0.466, -1.365e-3
0.467, -1.365e-3
0.468, -1.365e-3
0.469, -1.364e-3
0.470, -1.364e-3
0.471, -1.363e-3
0.472, -1.363e-3
0.473, -1.363e-3
0.474, -1.362e-3
0.475, -1.362e-3
0.476, -1.362e-3
0.477, -1.362e-3
0.478, -1.361e-3
0.479, -1.360e-3
0.480, -1.360e-3
0.481, -1.360e-3
0.482, -1.359e-3
0.483, -1.359e-3
0.484, -1.358e-3
0.485, -1.358e-3
0.486, -1.358e-3
0.487, -1.357e-3
0.488, -1.357e-3
0.489, -1.356e-3
0.490, -1.356e-3
0.491, -1.355e-3
0.492, -1.355e-3
0.493, -1.354e-3
0.494, -1.354e-3
0.495, -1.354e-3
0.496, -1.353e-3
0.497, -1.353e-3
0.498, -1.352e-3
0.499, -1.351e-3
0.500, -1.350e-3
0.501, -1.350e-3
0.502, -1.350e-3
0.503, -1.349e-3
0.504, -1.349e-3
0.505, -1.348e-3
0.506, -1.348e-3
0.507, -1.348e-3
0.508, -1.347e-3
0.509, -1.346e-3
0.510, -1.346e-3
0.511, -1.346e-3
0.512, -1.346e-3
0.513, -1.346e-3
0.514, -1.345e-3
0.515, -1.345e-3
0.516, -1.345e-3
0.517, -1.344e-3
0.518, -1.344e-3
0.519, -1.344e-3
0.520, -1.343e-3
0.521, -1.343e-3
0.522, -1.342e-3
0.523, -1.341e-3
0.524, -1.341e-3
0.525, -1.340e-3
0.526, -1.340e-3
0.527, -1.340e-3
0.528, -1.340e-3
0.529, -1.339e-3
0.530, -1.338e-3
0.531, -1.338e-3
0.532, -1.338e-3
0.533, -1.338e-3
0.534, -1.337e-3
0.535, -1.337e-3
0.536, -1.336e-3
0.537, -1.336e-3
0.538, -1.335e-3
0.539, -1.334e-3
0.540, -1.334e-3
0.541, -1.334e-3
0.542, -1.333e-3
0.543, -1.333e-3
0.544, -1.332e-3
0.545, -1.332e-3
0.546, -1.331e-3
0.547, -1.331e-3
0.548, -1.331e-3
0.549, -1.330e-3
0.550, -1.330e-3
0.551, -1.330e-3
0.552, -1.329e-3
0.553, -1.329e-3
0.554, -1.328e-3
0.555, -1.328e-3
0.556, -1.327e-3
0.557, -1.327e-3
0.558, -1.327e-3
0.559, -1.326e-3
0.560, -1.325e-3
0.561, -1.325e-3
0.562, -1.324e-3
0.563, -1.324e-3
0.564, -1.324e-3
0.565, -1.323e-3
0.566, -1.322e-3
0.567, -1.321e-3
0.568, -1.321e-3
0.569, -1.320e-3
0.570, -1.320e-3
0.571, -1.320e-3
0.572, -1.319e-3
0.573, -1.318e-3
0.574, -1.318e-3
0.575, -1.317e-3
0.576, -1.317e-3
0.577, -1.317e-3
0.578, -1.316e-3
0.579, -1.316e-3
0.580, -1.316e-3
0.581, -1.315e-3
0.582, -1.315e-3
0.583, -1.315e-3
0.584, -1.313e-3
0.585, -1.313e-3
0.586, -1.312e-3
0.587, -1.312e-3
0.588, -1.311e-3
0.589, -1.310e-3
0.590, -1.310e-3
0.591, -1.309e-3
0.592, -1.309e-3
0.593, -1.308e-3
0.594, -1.308e-3
0.595, -1.307e-3
0.596, -1.306e-3
0.597, -1.305e-3
0.598, -1.305e-3
0.599, -1.305e-3
0.600, -1.304e-3
0.601, -1.303e-3
0.602, -1.302e-3
0.603, -1.301e-3
0.604, -1.301e-3
0.605, -1.300e-3
0.606, -1.299e-3
0.607, -1.298e-3
0.608, -1.297e-3
0.609, -1.297e-3
0.610, -1.295e-3
0.611, -1.295e-3
0.612, -1.294e-3
0.613, -1.293e-3
0.614, -1.292e-3
0.615, -1.291e-3
0.616, -1.290e-3
0.617, -1.289e-3
0.618, -1.289e-3
0.619, -1.288e-3
0.620, -1.287e-3
0.621, -1.286e-3
0.622, -1.285e-3
0.623, -1.284e-3
0.624, -1.283e-3
0.625, -1.282e-3
0.626, -1.281e-3
0.627, -1.280e-3
0.628, -1.280e-3
0.629, -1.279e-3
0.630, -1.278e-3
0.631, -1.277e-3
0.632, -1.276e-3
0.633, -1.275e-3
0.634, -1.275e-3
0.635, -1.274e-3
0.636, -1.273e-3
0.637, -1.272e-3
0.638, -1.271e-3
0.639, -1.270e-3
0.640, -1.269e-3
0.641, -1.268e-3
0.642, -1.267e-3
0.643, -1.266e-3
0.644, -1.265e-3
0.645, -1.264e-3
0.646, -1.263e-3
0.647, -1.263e-3
0.648, -1.262e-3
0.649, -1.261e-3
0.650, -1.260e-3
0.651, -1.259e-3
0.652, -1.258e-3
0.653, -1.257e-3
0.654, -1.256e-3
0.655, -1.255e-3
0.656, -1.254e-3
0.657, -1.253e-3
0.658, -1.252e-3
0.659, -1.251e-3
0.660, -1.250e-3
0.661, -1.250e-3
0.662, -1.249e-3
0.663, -1.248e-3
0.664, -1.247e-3
0.665, -1.246e-3
0.666, -1.246e-3
0.667, -1.244e-3
0.668, -1.244e-3
0.669, -1.243e-3
0.670, -1.242e-3
0.671, -1.241e-3
0.672, -1.240e-3
0.673, -1.239e-3
0.674, -1.238e-3
0.675, -1.238e-3
0.676, -1.237e-3
0.677, -1.236e-3
0.678, -1.236e-3
0.679, -1.235e-3
0.680, -1.234e-3
0.681, -1.233e-3
0.682, -1.232e-3
0.683, -1.231e-3
0.684, -1.230e-3
0.685, -1.229e-3
0.686, -1.228e-3
0.687, -1.228e-3
0.688, -1.227e-3
0.689, -1.226e-3
0.690, -1.225e-3
0.691, -1.225e-3
0.692, -1.224e-3
0.693, -1.223e-3
0.694, -1.222e-3
0.695, -1.221e-3
0.696, -1.221e-3
0.697, -1.220e-3
0.698, -1.219e-3
0.699, -1.219e-3
0.700, -1.218e-3
0.701, -1.217e-3
0.702, -1.216e-3
0.703, -1.215e-3
0.704, -1.214e-3
0.705, -1.214e-3
0.706, -1.213e-3
0.707, -1.212e-3
0.708, -1.211e-3
0.709, -1.210e-3
0.710, -1.210e-3
0.711, -1.209e-3
0.712, -1.208e-3
0.713, -1.207e-3
0.714, -1.206e-3
0.715, -1.206e-3
0.716, -1.205e-3
0.717, -1.204e-3
0.718, -1.204e-3
0.719, -1.204e-3
0.720, -1.203e-3
0.721, -1.202e-3
0.722, -1.201e-3
0.723, -1.200e-3
0.724, -1.200e-3
0.725, -1.199e-3
0.726, -1.199e-3
0.727, -1.198e-3
0.728, -1.197e-3
0.729, -1.196e-3
0.730, -1.195e-3
0.731, -1.195e-3
0.732, -1.194e-3
0.733, -1.193e-3
0.734, -1.192e-3
0.735, -1.192e-3
0.736, -1.191e-3
0.737, -1.190e-3
0.738, -1.190e-3
0.739, -1.189e-3
0.740, -1.188e-3
0.741, -1.187e-3
0.742, -1.187e-3
0.743, -1.187e-3
0.744, -1.185e-3
0.745, -1.185e-3
0.746, -1.184e-3
0.747, -1.184e-3
0.748, -1.183e-3
0.749, -1.183e-3
0.750, -1.182e-3
0.751, -1.182e-3
0.752, -1.181e-3
0.753, -1.180e-3
0.754, -1.180e-3
0.755, -1.179e-3
0.756, -1.179e-3
0.757, -1.178e-3
0.758, -1.177e-3
0.759, -1.177e-3
0.760, -1.176e-3
0.761, -1.176e-3
0.762, -1.175e-3
0.763, -1.175e-3
0.764, -1.174e-3
0.765, -1.173e-3
0.766, -1.173e-3
0.767, -1.173e-3
0.768, -1.173e-3
0.769, -1.173e-3
0.770, -1.172e-3
0.771, -1.171e-3
0.772, -1.171e-3
0.773, -1.170e-3
0.774, -1.170e-3
0.775, -1.170e-3
0.776, -1.170e-3
0.777, -1.169e-3
0.778, -1.169e-3
0.779, -1.168e-3
0.780, -1.168e-3
0.781, -1.167e-3
0.782, -1.167e-3
0.783, -1.167e-3
0.784, -1.167e-3
0.785, -1.166e-3
0.786, -1.166e-3
0.787, -1.165e-3
0.788, -1.165e-3
0.789, -1.165e-3
0.790, -1.165e-3
0.791, -1.165e-3
0.792, -1.164e-3
0.793, -1.164e-3
0.794, -1.165e-3
0.795, -1.164e-3
0.796, -1.164e-3
0.797, -1.164e-3
0.798, -1.164e-3
0.799, -1.163e-3
0.800, -1.164e-3
0.801, -1.164e-3
0.802, -1.164e-3
0.803, -1.163e-3
0.804, -1.163e-3
0.805, -1.163e-3
0.806, -1.163e-3
0.807, -1.163e-3
0.808, -1.163e-3
0.809, -1.163e-3
0.810, -1.163e-3
0.811, -1.163e-3
0.812, -1.163e-3
0.813, -1.163e-3
0.814, -1.164e-3
0.815, -1.164e-3
0.816, -1.164e-3
0.817, -1.164e-3
0.818, -1.164e-3
0.819, -1.165e-3
0.820, -1.167e-3
0.821, -1.166e-3
0.822, -1.167e-3
0.823, -1.167e-3
0.824, -1.167e-3
0.825, -1.167e-3
0.826, -1.167e-3
0.827, -1.168e-3
0.828, -1.168e-3
0.829, -1.168e-3
0.830, -1.169e-3
0.831, -1.169e-3
0.832, -1.169e-3
0.833, -1.170e-3
0.834, -1.170e-3
0.835, -1.170e-3
0.836, -1.171e-3
0.837, -1.171e-3
0.838, -1.171e-3
0.839, -1.171e-3
0.840, -1.172e-3
0.841, -1.173e-3
0.842, -1.173e-3
0.843, -1.173e-3
0.844, -1.174e-3
0.845, -1.175e-3
0.846, -1.175e-3
0.847, -1.176e-3
0.848, -1.176e-3
0.849, -1.177e-3
0.850, -1.177e-3
0.851, -1.178e-3
0.852, -1.179e-3
0.853, -1.180e-3
0.854, -1.181e-3
0.855, -1.181e-3
0.856, -1.182e-3
0.857, -1.183e-3
0.858, -1.184e-3
0.859, -1.185e-3
0.860, -1.185e-3
0.861, -1.186e-3
0.862, -1.187e-3
0.863, -1.188e-3
0.864, -1.189e-3
0.865, -1.190e-3
0.866, -1.191e-3
0.867, -1.192e-3
0.868, -1.193e-3
0.869, -1.194e-3
0.870, -1.195e-3
0.871, -1.196e-3
0.872, -1.197e-3
0.873, -1.198e-3
0.874, -1.199e-3
0.875, -1.200e-3
0.876, -1.202e-3
0.877, -1.203e-3
0.878, -1.204e-3
0.879, -1.205e-3
0.880, -1.206e-3
0.881, -1.207e-3
0.882, -1.208e-3
0.883, -1.210e-3
0.884, -1.211e-3
0.885, -1.212e-3
0.886, -1.214e-3
0.887, -1.214e-3
0.888, -1.216e-3
0.889, -1.218e-3
0.890, -1.219e-3
0.891, -1.220e-3
0.892, -1.222e-3
0.893, -1.223e-3
0.894, -1.225e-3
0.895, -1.226e-3
0.896, -1.228e-3
0.897, -1.229e-3
0.898, -1.230e-3
0.899, -1.232e-3
0.900, -1.234e-3
0.901, -1.235e-3
0.902, -1.237e-3
0.903, -1.239e-3
0.904, -1.240e-3
0.905, -1.242e-3
0.906, -1.243e-3
0.907, -1.245e-3
0.908, -1.246e-3
0.909, -1.248e-3
0.910, -1.250e-3
0.911, -1.251e-3
0.912, -1.253e-3
0.913, -1.255e-3
0.914, -1.257e-3
0.915, -1.258e-3
0.916, -1.260e-3
0.917, -1.262e-3
0.918, -1.264e-3
0.919, -1.266e-3
0.920, -1.267e-3
0.921, -1.269e-3
0.922, -1.272e-3
0.923, -1.274e-3
0.924, -1.276e-3
0.925, -1.277e-3
0.926, -1.279e-3
0.927, -1.281e-3
0.928, -1.283e-3
0.929, -1.285e-3
0.930, -1.287e-3
0.931, -1.289e-3
0.932, -1.290e-3
0.933, -1.292e-3
0.934, -1.295e-3
0.935, -1.296e-3
0.936, -1.298e-3
0.937, -1.301e-3
0.938, -1.302e-3
0.939, -1.304e-3
0.940, -1.306e-3
0.941, -1.308e-3
0.942, -1.311e-3
0.943, -1.313e-3
0.944, -1.314e-3
0.945, -1.317e-3
0.946, -1.319e-3
0.947, -1.321e-3
0.948, -1.323e-3
0.949, -1.325e-3
0.950, -1.327e-3
0.951, -1.329e-3
0.952, -1.331e-3
0.953, -1.333e-3
0.954, -1.335e-3
0.955, -1.337e-3
0.956, -1.339e-3
0.957, -1.341e-3
0.958, -1.343e-3
0.959, -1.345e-3
0.960, -1.347e-3
0.961, -1.349e-3
0.962, -1.351e-3
0.963, -1.353e-3
0.964, -1.356e-3
0.965, -1.357e-3
0.966, -1.360e-3
0.967, -1.362e-3
0.968, -1.364e-3
0.969, -1.366e-3
0.970, -1.367e-3
0.971, -1.369e-3
0.972, -1.372e-3
0.973, -1.374e-3
0.974, -1.376e-3
0.975, -1.378e-3
0.976, -1.380e-3
0.977, -1.382e-3
0.978, -1.384e-3
0.979, -1.386e-3
0.980, -1.388e-3
0.981, -1.390e-3
0.982, -1.392e-3
0.983, -1.394e-3
0.984, -1.395e-3
0.985, -1.397e-3
0.986, -1.399e-3
0.987, -1.400e-3
0.988, -1.402e-3
0.989, -1.403e-3
0.990, -1.406e-3
0.991, -1.407e-3
0.992, -1.410e-3
0.993, -1.412e-3
0.994, -1.413e-3
0.995, -1.415e-3
0.996, -1.417e-3
0.997, -1.418e-3
0.998, -1.420e-3
0.999, -1.422e-3
1.000, -1.423e-3
1.001, -1.425e-3
1.002, -1.426e-3
1.003, -1.428e-3
1.004, -1.429e-3
1.005, -1.431e-3
1.006, -1.433e-3
1.007, -1.434e-3
1.008, -1.436e-3
1.009, -1.437e-3
1.010, -1.439e-3
1.011, -1.440e-3
1.012, -1.441e-3
1.013, -1.443e-3
1.014, -1.444e-3
1.015, -1.446e-3
1.016, -1.447e-3
1.017, -1.448e-3
1.018, -1.450e-3
1.019, -1.452e-3
1.020, -1.453e-3
1.021, -1.454e-3
1.022, -1.455e-3
1.023, -1.456e-3
1.024, -1.458e-3
1.025, -1.459e-3
1.026, -1.460e-3
1.027, -1.462e-3
1.028, -1.463e-3
1.029, -1.464e-3
1.030, -1.465e-3
1.031, -1.467e-3
1.032, -1.468e-3
1.033, -1.469e-3
1.034, -1.470e-3
1.035, -1.471e-3
1.036, -1.472e-3
1.037, -1.473e-3
1.038, -1.474e-3
1.039, -1.476e-3
1.040, -1.477e-3
1.041, -1.478e-3
1.042, -1.479e-3
1.043, -1.481e-3
1.044, -1.482e-3
1.045, -1.483e-3
1.046, -1.484e-3
1.047, -1.486e-3
1.048, -1.487e-3
1.049, -1.488e-3
1.050, -1.490e-3
1.051, -1.491e-3
1.052, -1.493e-3
1.053, -1.494e-3
1.054, -1.495e-3
1.055, -1.497e-3
1.056, -1.498e-3
1.057, -1.499e-3
1.058, -1.501e-3
1.059, -1.501e-3
1.060, -1.503e-3
1.061, -1.504e-3
1.062, -1.506e-3
1.063, -1.507e-3
1.064, -1.509e-3
1.065, -1.510e-3
1.066, -1.512e-3
1.067, -1.514e-3
1.068, -1.515e-3
1.069, -1.517e-3
1.070, -1.519e-3
1.071, -1.520e-3
1.072, -1.522e-3
1.073, -1.524e-3
1.074, -1.525e-3
1.075, -1.528e-3
1.076, -1.530e-3
1.077, -1.532e-3
1.078, -1.534e-3
1.079, -1.535e-3
1.080, -1.538e-3
1.081, -1.540e-3
1.082, -1.543e-3
1.083, -1.545e-3
1.084, -1.548e-3
1.085, -1.550e-3
1.086, -1.552e-3
1.087, -1.555e-3
1.088, -1.558e-3
1.089, -1.561e-3
1.090, -1.564e-3
1.091, -1.567e-3
1.092, -1.570e-3
1.093, -1.573e-3
1.094, -1.576e-3
1.095, -1.579e-3
1.096, -1.583e-3
1.097, -1.587e-3
1.098, -1.590e-3
1.099, -1.594e-3
1.100, -1.573e-3
1.099, -1.450e-3
1.098, -1.315e-3
1.097, -1.191e-3
1.096, -1.075e-3
1.095, -9.667e-4
1.094, -8.658e-4
1.093, -7.711e-4
1.092, -6.815e-4
1.091, -5.975e-4
1.090, -5.186e-4
1.089, -4.446e-4
1.088, -3.740e-4
1.087, -3.088e-4
1.086, -2.460e-4
1.085, -1.863e-4
1.084, -1.298e-4
1.083, -7.638e-5
1.082, -2.500e-5
1.081, 2.359e-5
1.080, 6.963e-5
1.079, 1.146e-4
1.078, 1.562e-4
1.077, 1.959e-4
1.076, 2.334e-4
1.075, 2.695e-4
1.074, 3.040e-4
1.073, 3.363e-4
1.072, 3.675e-4
1.071, 3.971e-4
1.070, 4.254e-4
1.069, 4.523e-4
1.068, 4.782e-4
1.067, 5.025e-4
1.066, 5.260e-4
1.065, 5.480e-4
1.064, 5.695e-4
1.063, 5.900e-4
1.062, 6.095e-4
1.061, 6.279e-4
1.060, 6.453e-4
1.059, 6.621e-4
1.058, 6.780e-4
1.057, 6.933e-4
1.056, 7.085e-4
1.055, 7.228e-4
1.054, 7.361e-4
1.053, 7.496e-4
1.052, 7.614e-4
1.051, 7.731e-4
1.050, 7.843e-4
1.049, 7.955e-4
1.048, 8.058e-4
1.047, 8.159e-4
1.046, 8.248e-4
1.045, 8.338e-4
1.044, 8.425e-4
1.043, 8.509e-4
1.042, 8.591e-4
1.041, 8.666e-4
1.040, 8.743e-4
1.039, 8.816e-4
1.038, 8.883e-4
1.037, 8.946e-4
1.036, 9.009e-4
1.035, 9.068e-4
1.034, 9.126e-4
1.033, 9.181e-4
1.032, 9.231e-4
1.031, 9.281e-4
1.030, 9.330e-4
1.029, 9.379e-4
1.028, 9.423e-4
1.027, 9.461e-4
1.026, 9.505e-4
1.025, 9.544e-4
1.024, 9.583e-4
1.023, 9.621e-4
1.022, 9.657e-4
1.021, 9.690e-4
1.020, 9.724e-4
1.019, 9.756e-4
1.018, 9.787e-4
1.017, 9.818e-4
1.016, 9.847e-4
1.015, 9.876e-4
1.014, 9.899e-4
1.013, 9.925e-4
1.012, 9.950e-4
1.011, 9.974e-4
1.010, 9.997e-4
1.009, 1.002e-3
1.008, 1.004e-3
1.007, 1.006e-3
1.006, 1.008e-3
1.005, 1.010e-3
1.004, 1.012e-3
1.003, 1.014e-3
1.002, 1.016e-3
1.001, 1.017e-3
1.000, 1.019e-3
0.999, 1.021e-3
0.998, 1.023e-3
0.997, 1.025e-3
0.996, 1.026e-3
0.995, 1.027e-3
0.994, 1.029e-3
0.993, 1.030e-3
0.992, 1.032e-3
0.991, 1.033e-3
0.990, 1.034e-3
0.989, 1.036e-3
0.988, 1.036e-3
0.987, 1.038e-3
0.986, 1.039e-3
0.985, 1.040e-3
0.984, 1.041e-3
0.983, 1.042e-3
0.982, 1.043e-3
0.981, 1.044e-3
0.980, 1.045e-3
0.979, 1.046e-3
0.978, 1.047e-3
0.977, 1.048e-3
0.976, 1.048e-3
0.975, 1.049e-3
0.974, 1.049e-3
0.973, 1.051e-3
0.972, 1.051e-3
0.971, 1.052e-3
0.970, 1.053e-3
0.969, 1.053e-3
0.968, 1.054e-3
0.967, 1.054e-3
0.966, 1.055e-3
0.965, 1.056e-3
0.964, 1.056e-3
0.963, 1.056e-3
0.962, 1.057e-3
0.961, 1.057e-3
0.960, 1.057e-3
0.959, 1.057e-3
0.958, 1.058e-3
0.957, 1.058e-3
0.956, 1.058e-3
0.955, 1.058e-3
0.954, 1.059e-3
0.953, 1.059e-3
0.952, 1.059e-3
0.951, 1.059e-3
0.950, 1.059e-3
0.949, 1.059e-3
0.948, 1.059e-3
0.947, 1.059e-3
0.946, 1.060e-3
0.945, 1.060e-3
0.944, 1.060e-3
0.943, 1.059e-3
0.942, 1.059e-3
0.941, 1.059e-3
0.940, 1.059e-3
0.939, 1.059e-3
0.938, 1.058e-3
0.937, 1.057e-3
0.936, 1.057e-3
0.935, 1.057e-3
0.934, 1.057e-3
0.933, 1.056e-3
0.932, 1.056e-3
0.931, 1.055e-3
0.930, 1.055e-3
0.929, 1.054e-3
0.928, 1.054e-3
0.927, 1.053e-3
0.926, 1.053e-3
0.925, 1.052e-3
0.924, 1.052e-3
0.923, 1.051e-3
0.922, 1.050e-3
0.921, 1.050e-3
0.920, 1.049e-3
0.919, 1.049e-3
0.918, 1.048e-3
0.917, 1.047e-3
0.916, 1.046e-3
0.915, 1.046e-3
0.914, 1.045e-3
0.913, 1.044e-3
0.912, 1.043e-3
0.911, 1.042e-3
0.910, 1.041e-3
0.909, 1.040e-3
0.908, 1.039e-3
0.907, 1.038e-3
0.906, 1.037e-3
0.905, 1.036e-3
0.904, 1.035e-3
0.903, 1.034e-3
0.902, 1.033e-3
0.901, 1.031e-3
0.900, 1.030e-3
0.899, 1.029e-3
0.898, 1.028e-3
0.897, 1.026e-3
0.896, 1.025e-3
0.895, 1.024e-3
0.894, 1.023e-3
0.893, 1.022e-3
0.892, 1.020e-3
0.891, 1.019e-3
0.890, 1.018e-3
0.889, 1.017e-3
0.888, 1.016e-3
0.887, 1.014e-3
0.886, 1.013e-3
0.885, 1.011e-3
0.884, 1.010e-3
0.883, 1.009e-3
0.882, 1.007e-3
0.881, 1.006e-3
0.880, 1.005e-3
0.879, 1.003e-3
0.878, 1.001e-3
0.877, 1.000e-3
0.876, 9.987e-4
0.875, 9.969e-4
0.874, 9.956e-4
0.873, 9.939e-4
0.872, 9.930e-4
0.871, 9.911e-4
0.870, 9.901e-4
0.869, 9.887e-4
0.868, 9.873e-4
0.867, 9.861e-4
0.866, 9.843e-4
0.865, 9.826e-4
0.864, 9.816e-4
0.863, 9.805e-4
0.862, 9.783e-4
0.861, 9.769e-4
0.860, 9.755e-4
0.859, 9.738e-4
0.858, 9.724e-4
0.857, 9.709e-4
0.856, 9.697e-4
0.855, 9.685e-4
0.854, 9.669e-4
0.853, 9.651e-4
0.852, 9.639e-4
0.851, 9.628e-4
0.850, 9.613e-4
0.849, 9.599e-4
0.848, 9.587e-4
0.847, 9.571e-4
0.846, 9.558e-4
0.845, 9.546e-4
0.844, 9.536e-4
0.843, 9.520e-4
0.842, 9.507e-4
0.841, 9.492e-4
0.840, 9.479e-4
0.839, 9.470e-4
0.838, 9.458e-4
0.837, 9.441e-4
0.836, 9.427e-4
0.835, 9.412e-4
0.834, 9.401e-4
0.833, 9.389e-4
0.832, 9.379e-4
0.831, 9.366e-4
0.830, 9.349e-4
0.829, 9.341e-4
0.828, 9.328e-4
0.827, 9.317e-4
0.826, 9.307e-4
0.825, 9.299e-4
0.824, 9.288e-4
0.823, 9.276e-4
0.822, 9.265e-4
0.821, 9.252e-4
0.820, 9.241e-4
0.819, 9.244e-4
0.818, 9.240e-4
0.817, 9.227e-4
0.816, 9.219e-4
0.815, 9.209e-4
0.814, 9.198e-4
0.813, 9.184e-4
0.812, 9.173e-4
0.811, 9.166e-4
0.810, 9.151e-4
0.809, 9.142e-4
0.808, 9.132e-4
0.807, 9.123e-4
0.806, 9.117e-4
0.805, 9.107e-4
0.804, 9.098e-4
0.803, 9.091e-4
0.802, 9.083e-4
0.801, 9.073e-4
0.800, 9.067e-4
0.799, 9.060e-4
0.798, 9.055e-4
0.797, 9.047e-4
0.796, 9.038e-4
0.795, 9.032e-4
0.794, 9.026e-4
0.793, 9.016e-4
0.792, 9.013e-4
0.791, 9.007e-4
0.790, 8.999e-4
0.789, 8.996e-4
0.788, 8.988e-4
0.787, 8.986e-4
0.786, 8.980e-4
0.785, 8.974e-4
0.784, 8.968e-4
0.783, 8.965e-4
0.782, 8.956e-4
0.781, 8.955e-4
0.780, 8.949e-4
0.779, 8.941e-4
0.778, 8.940e-4
0.777, 8.935e-4
0.776, 8.932e-4
0.775, 8.933e-4
0.774, 8.925e-4
0.773, 8.923e-4
0.772, 8.919e-4
0.771, 8.914e-4
0.770, 8.909e-4
0.769, 8.903e-4
0.768, 8.904e-4
0.767, 8.903e-4
0.766, 8.899e-4
0.765, 8.897e-4
0.764, 8.894e-4
0.763, 8.890e-4
0.762, 8.891e-4
0.761, 8.889e-4
0.760, 8.888e-4
0.759, 8.883e-4
0.758, 8.885e-4
0.757, 8.881e-4
0.756, 8.875e-4
0.755, 8.876e-4
0.754, 8.875e-4
0.753, 8.879e-4
0.752, 8.873e-4
0.751, 8.873e-4
0.750, 8.872e-4
0.749, 8.872e-4
0.748, 8.873e-4
0.747, 8.871e-4
0.746, 8.869e-4
0.745, 8.872e-4
0.744, 8.868e-4
0.743, 8.872e-4
0.742, 8.869e-4
0.741, 8.873e-4
0.740, 8.871e-4
0.739, 8.871e-4
0.738, 8.873e-4
0.737, 8.876e-4
0.736, 8.876e-4
0.735, 8.873e-4
0.734, 8.873e-4
0.733, 8.877e-4
0.732, 8.874e-4
0.731, 8.876e-4
0.730, 8.876e-4
0.729, 8.876e-4
0.728, 8.877e-4
0.727, 8.881e-4
0.726, 8.879e-4
0.725, 8.884e-4
0.724, 8.883e-4
0.723, 8.887e-4
0.722, 8.890e-4
0.721, 8.891e-4
0.720, 8.894e-4
0.719, 8.898e-4
0.718, 8.899e-4
0.717, 8.905e-4
0.716, 8.910e-4
0.715, 8.912e-4
0.714, 8.920e-4
0.713, 8.916e-4
0.712, 8.921e-4
0.711, 8.922e-4
0.710, 8.934e-4
0.709, 8.933e-4
0.708, 8.936e-4
0.707, 8.940e-4
0.706, 8.945e-4
0.705, 8.945e-4
0.704, 8.948e-4
0.703, 8.959e-4
0.702, 8.960e-4
0.701, 8.961e-4
0.700, 8.965e-4
0.699, 8.969e-4
0.698, 8.975e-4
0.697, 8.977e-4
0.696, 8.983e-4
0.695, 8.996e-4
0.694, 8.992e-4
0.693, 8.998e-4
0.692, 9.003e-4
0.691, 9.011e-4
0.690, 9.018e-4
0.689, 9.018e-4
0.688, 9.026e-4
0.687, 9.028e-4
0.686, 9.033e-4
0.685, 9.040e-4
0.684, 9.050e-4
0.683, 9.052e-4
0.682, 9.058e-4
0.681, 9.064e-4
0.680, 9.067e-4
0.679, 9.073e-4
0.678, 9.079e-4
0.677, 9.090e-4
0.676, 9.094e-4
0.675, 9.096e-4
0.674, 9.103e-4
0.673, 9.107e-4
0.672, 9.115e-4
0.671, 9.127e-4
0.670, 9.127e-4
0.669, 9.134e-4
0.668, 9.138e-4
0.667, 9.147e-4
0.666, 9.155e-4
0.665, 9.163e-4
0.664, 9.171e-4
0.663, 9.173e-4
0.662, 9.180e-4
0.661, 9.186e-4
0.660, 9.191e-4
0.659, 9.200e-4
0.658, 9.207e-4
0.657, 9.214e-4
0.656, 9.216e-4
0.655, 9.221e-4
0.654, 9.229e-4
0.653, 9.233e-4
0.652, 9.240e-4
0.651, 9.248e-4
0.650, 9.258e-4
0.649, 9.262e-4
0.648, 9.277e-4
0.647, 9.280e-4
0.646, 9.285e-4
0.645, 9.297e-4
0.644, 9.300e-4
0.643, 9.306e-4
0.642, 9.314e-4
0.641, 9.318e-4
0.640, 9.326e-4
0.639, 9.336e-4
0.638, 9.346e-4
0.637, 9.351e-4
0.636, 9.360e-4
0.635, 9.364e-4
0.634, 9.375e-4
0.633, 9.386e-4
0.632, 9.396e-4
0.631, 9.403e-4
0.630, 9.408e-4
0.629, 9.417e-4
0.628, 9.422e-4
0.627, 9.431e-4
0.626, 9.446e-4
0.625, 9.452e-4
0.624, 9.463e-4
0.623, 9.467e-4
0.622, 9.474e-4
0.621, 9.484e-4
0.620, 9.491e-4
0.619, 9.496e-4
0.618, 9.505e-4
0.617, 9.514e-4
0.616, 9.521e-4
0.615, 9.530e-4
0.614, 9.544e-4
0.613, 9.553e-4
0.612, 9.559e-4
0.611, 9.569e-4
0.610, 9.578e-4
0.609, 9.584e-4
0.608, 9.593e-4
0.607, 9.605e-4
0.606, 9.611e-4
0.605, 9.622e-4
0.604, 9.632e-4
0.603, 9.641e-4
0.602, 9.652e-4
0.601, 9.659e-4
0.600, 9.666e-4
0.599, 9.675e-4
0.598, 9.686e-4
0.597, 9.698e-4
0.596, 9.705e-4
0.595, 9.714e-4
0.594, 9.729e-4
0.593, 9.736e-4
0.592, 9.746e-4
0.591, 9.753e-4
0.590, 9.760e-4
0.589, 9.772e-4
0.588, 9.782e-4
0.587, 9.793e-4
0.586, 9.802e-4
0.585, 9.813e-4
0.584, 9.823e-4
0.583, 9.831e-4
0.582, 9.840e-4
0.581, 9.851e-4
0.580, 9.860e-4
0.579, 9.873e-4
0.578, 9.883e-4
0.577, 9.888e-4
0.576, 9.896e-4
0.575, 9.907e-4
0.574, 9.916e-4
0.573, 9.928e-4
0.572, 9.936e-4
0.571, 9.948e-4
0.570, 9.959e-4
0.569, 9.967e-4
0.568, 9.979e-4
0.567, 9.989e-4
0.566, 9.999e-4
0.565, 1.001e-3
0.564, 1.002e-3
0.563, 1.003e-3
0.562, 1.004e-3
0.561, 1.005e-3
0.560, 1.006e-3
0.559, 1.007e-3
0.558, 1.008e-3
0.557, 1.009e-3
0.556, 1.010e-3
0.555, 1.011e-3
0.554, 1.012e-3
0.553, 1.013e-3
0.552, 1.015e-3
0.551, 1.015e-3
0.550, 1.016e-3
0.549, 1.017e-3
0.548, 1.018e-3
0.547, 1.019e-3
0.546, 1.020e-3
0.545, 1.021e-3
0.544, 1.022e-3
0.543, 1.023e-3
0.542, 1.024e-3
0.541, 1.025e-3
0.540, 1.026e-3
0.539, 1.027e-3
0.538, 1.028e-3
0.537, 1.029e-3
0.536, 1.030e-3
0.535, 1.031e-3
0.534, 1.032e-3
0.533, 1.033e-3
0.532, 1.033e-3
0.531, 1.035e-3
0.530, 1.036e-3
0.529, 1.036e-3
0.528, 1.038e-3
0.527, 1.038e-3
0.526, 1.039e-3
0.525, 1.040e-3
0.524, 1.040e-3
0.523, 1.041e-3
0.522, 1.042e-3
0.521, 1.043e-3
0.520, 1.044e-3
0.519, 1.045e-3
0.518, 1.046e-3
0.517, 1.047e-3
0.516, 1.048e-3
0.515, 1.048e-3
0.514, 1.050e-3
0.513, 1.051e-3
0.512, 1.052e-3
0.511, 1.053e-3
0.510, 1.053e-3
0.509, 1.055e-3
0.508, 1.055e-3
0.507, 1.056e-3
0.506, 1.057e-3
0.505, 1.058e-3
0.504, 1.058e-3
0.503, 1.059e-3
0.502, 1.059e-3
0.501, 1.060e-3
0.500, 1.061e-3
0.499, 1.061e-3
0.498, 1.062e-3
0.497, 1.063e-3
0.496, 1.063e-3
0.495, 1.064e-3
0.494, 1.064e-3
0.493, 1.065e-3
0.492, 1.066e-3
0.491, 1.067e-3
0.490, 1.068e-3
0.489, 1.068e-3
0.488, 1.069e-3
0.487, 1.070e-3
0.486, 1.070e-3
0.485, 1.071e-3
0.484, 1.072e-3
0.483, 1.072e-3
0.482, 1.073e-3
0.481, 1.074e-3
0.480, 1.075e-3
0.479, 1.076e-3
0.478, 1.076e-3
0.477, 1.077e-3
0.476, 1.077e-3
0.475, 1.078e-3
0.474, 1.079e-3
0.473, 1.079e-3
0.472, 1.079e-3
0.471, 1.080e-3
0.470, 1.081e-3
0.469, 1.081e-3
0.468, 1.082e-3
0.467, 1.083e-3
0.466, 1.083e-3
0.465, 1.084e-3
0.464, 1.084e-3
0.463, 1.085e-3
0.462, 1.086e-3
0.461, 1.086e-3
0.460, 1.087e-3
0.459, 1.087e-3
0.458, 1.088e-3
0.457, 1.088e-3
0.456, 1.089e-3
0.455, 1.090e-3
0.454, 1.090e-3
0.453, 1.091e-3
0.452, 1.092e-3
0.451, 1.092e-3
0.450, 1.092e-3
0.449, 1.093e-3
0.448, 1.094e-3
0.447, 1.094e-3
0.446, 1.094e-3
0.445, 1.095e-3
0.444, 1.096e-3
0.443, 1.097e-3
0.442, 1.098e-3
0.441, 1.098e-3
0.440, 1.099e-3
0.439, 1.099e-3
0.438, 1.100e-3
0.437, 1.101e-3
0.436, 1.101e-3
0.435, 1.102e-3
0.434, 1.103e-3
0.433, 1.104e-3
0.432, 1.105e-3
0.431, 1.105e-3
0.430, 1.105e-3
0.429, 1.106e-3
0.428, 1.107e-3
0.427, 1.108e-3
0.426, 1.109e-3
0.425, 1.109e-3
0.424, 1.110e-3
0.423, 1.111e-3
0.422, 1.111e-3
0.421, 1.112e-3
0.420, 1.113e-3
0.419, 1.114e-3
0.418, 1.114e-3
0.417, 1.115e-3
0.416, 1.116e-3
0.415, 1.117e-3
0.414, 1.117e-3
0.413, 1.118e-3
0.412, 1.119e-3
0.411, 1.120e-3
0.410, 1.121e-3
0.409, 1.121e-3
0.408, 1.122e-3
0.407, 1.123e-3
0.406, 1.123e-3
0.405, 1.124e-3
0.404, 1.125e-3
0.403, 1.125e-3
0.402, 1.127e-3
0.401, 1.127e-3
0.400, 1.128e-3
0.399, 1.128e-3
0.398, 1.129e-3
0.397, 1.130e-3
0.396, 1.131e-3
0.395, 1.131e-3
0.394, 1.132e-3
0.393, 1.133e-3
0.392, 1.134e-3
0.391, 1.135e-3
0.390, 1.135e-3
0.389, 1.136e-3
0.388, 1.137e-3
0.387, 1.138e-3
0.386, 1.139e-3
0.385, 1.139e-3
0.384, 1.141e-3
0.383, 1.142e-3
0.382, 1.142e-3
0.381, 1.143e-3
0.380, 1.144e-3
0.379, 1.144e-3
0.378, 1.145e-3
0.377, 1.146e-3
0.376, 1.146e-3
0.375, 1.147e-3
0.374, 1.148e-3
0.373, 1.149e-3
0.372, 1.149e-3
0.371, 1.150e-3
0.370, 1.151e-3
0.369, 1.152e-3
0.368, 1.153e-3
0.367, 1.153e-3
0.366, 1.154e-3
0.365, 1.155e-3
0.364, 1.156e-3
0.363, 1.156e-3
0.362, 1.157e-3
0.361, 1.158e-3
0.360, 1.158e-3
0.359, 1.159e-3
0.358, 1.160e-3
0.357, 1.161e-3
0.356, 1.162e-3
0.355, 1.162e-3
0.354, 1.163e-3
0.353, 1.163e-3
0.352, 1.164e-3
0.351, 1.165e-3
0.350, 1.166e-3
0.349, 1.166e-3
0.348, 1.167e-3
0.347, 1.167e-3
0.346, 1.168e-3
0.345, 1.168e-3
0.344, 1.169e-3
0.343, 1.169e-3
0.342, 1.170e-3
0.341, 1.171e-3
0.340, 1.171e-3
0.339, 1.171e-3
0.338, 1.172e-3
0.337, 1.172e-3
0.336, 1.173e-3
0.335, 1.173e-3
0.334, 1.173e-3
0.333, 1.174e-3
0.332, 1.174e-3
0.331, 1.175e-3
0.330, 1.175e-3
0.329, 1.175e-3
0.328, 1.176e-3
0.327, 1.176e-3
0.326, 1.177e-3
0.325, 1.177e-3
0.324, 1.177e-3
0.323, 1.177e-3
0.322, 1.177e-3
0.321, 1.177e-3
0.320, 1.177e-3
0.319, 1.178e-3
0.318, 1.178e-3
0.317, 1.178e-3
0.316, 1.177e-3
0.315, 1.178e-3
0.314, 1.178e-3
0.313, 1.178e-3
0.312, 1.178e-3
0.311, 1.177e-3
0.310, 1.177e-3
0.309, 1.177e-3
0.308, 1.177e-3
0.307, 1.177e-3
0.306, 1.177e-3
0.305, 1.177e-3
0.304, 1.177e-3
0.303, 1.177e-3
0.302, 1.176e-3
0.301, 1.176e-3
0.300, 1.176e-3
0.299, 1.176e-3
0.298, 1.175e-3
0.297, 1.175e-3
0.296, 1.174e-3
0.295, 1.174e-3
0.294, 1.174e-3
0.293, 1.174e-3
0.292, 1.173e-3
0.291, 1.172e-3
0.290, 1.172e-3
0.289, 1.171e-3
0.288, 1.171e-3
0.287, 1.170e-3
0.286, 1.169e-3
0.285, 1.169e-3
0.284, 1.168e-3
0.283, 1.168e-3
0.282, 1.167e-3
0.281, 1.166e-3
0.280, 1.166e-3
0.279, 1.165e-3
0.278, 1.165e-3
0.277, 1.164e-3
0.276, 1.163e-3
0.275, 1.162e-3
0.274, 1.161e-3
0.273, 1.160e-3
0.272, 1.159e-3
0.271, 1.158e-3
0.270, 1.157e-3
0.269, 1.157e-3
0.268, 1.156e-3
0.267, 1.155e-3
0.266, 1.154e-3
0.265, 1.153e-3
0.264, 1.152e-3
0.263, 1.151e-3
0.262, 1.151e-3
0.261, 1.149e-3
0.260, 1.148e-3
0.259, 1.148e-3
0.258, 1.147e-3
0.257, 1.146e-3
0.256, 1.145e-3
0.255, 1.144e-3
0.254, 1.143e-3
0.253, 1.142e-3
0.252, 1.141e-3
0.251, 1.140e-3
0.250, 1.139e-3
0.249, 1.138e-3
0.248, 1.137e-3
0.247, 1.136e-3
0.246, 1.135e-3
0.245, 1.134e-3
0.244, 1.134e-3
0.243, 1.133e-3
0.242, 1.132e-3
0.241, 1.130e-3
0.240, 1.129e-3
0.239, 1.128e-3
0.238, 1.127e-3
0.237, 1.126e-3
0.236, 1.126e-3
0.235, 1.125e-3
0.234, 1.124e-3
0.233, 1.122e-3
0.232, 1.122e-3
0.231, 1.121e-3
0.230, 1.120e-3
0.229, 1.120e-3
0.228, 1.119e-3
0.227, 1.118e-3
0.226, 1.117e-3
0.225, 1.116e-3
0.224, 1.115e-3
0.223, 1.114e-3
0.222, 1.113e-3
0.221, 1.113e-3
0.220, 1.112e-3
0.219, 1.111e-3
0.218, 1.110e-3
0.217, 1.109e-3
0.216, 1.109e-3
0.215, 1.108e-3
0.214, 1.107e-3
0.213, 1.107e-3
0.212, 1.106e-3
0.211, 1.106e-3
0.210, 1.105e-3
0.209, 1.104e-3
0.208, 1.104e-3
0.207, 1.103e-3
0.206, 1.103e-3
0.205, 1.102e-3
0.204, 1.102e-3
0.203, 1.101e-3
0.202, 1.101e-3
0.201, 1.100e-3
0.200, 1.099e-3
0.199, 1.099e-3
0.198, 1.099e-3
0.197, 1.098e-3
0.196, 1.098e-3
0.195, 1.098e-3
0.194, 1.097e-3
0.193, 1.097e-3
0.192, 1.096e-3
0.191, 1.097e-3
0.190, 1.096e-3
0.189, 1.096e-3
0.188, 1.096e-3
0.187, 1.095e-3
0.186, 1.095e-3
0.185, 1.095e-3
0.184, 1.095e-3
0.183, 1.095e-3
0.182, 1.094e-3
0.181, 1.095e-3
0.180, 1.094e-3
0.179, 1.094e-3
0.178, 1.095e-3
0.177, 1.095e-3
0.176, 1.095e-3
0.175, 1.095e-3
0.174, 1.095e-3
0.173, 1.095e-3
0.172, 1.095e-3
0.171, 1.095e-3
0.170, 1.096e-3
0.169, 1.095e-3
0.168, 1.096e-3
0.167, 1.096e-3
0.166, 1.096e-3
0.165, 1.096e-3
0.164, 1.097e-3
0.163, 1.097e-3
0.162, 1.097e-3
0.161, 1.098e-3
0.160, 1.098e-3
0.159, 1.099e-3
0.158, 1.099e-3
0.157, 1.100e-3
0.156, 1.100e-3
0.155, 1.101e-3
0.154, 1.101e-3
0.153, 1.103e-3
0.152, 1.103e-3
0.151, 1.104e-3
0.150, 1.104e-3
0.149, 1.105e-3
0.148, 1.106e-3
0.147, 1.107e-3
0.146, 1.107e-3
0.145, 1.108e-3
0.144, 1.109e-3
0.143, 1.109e-3
0.142, 1.110e-3
0.141, 1.111e-3
0.140, 1.112e-3
0.139, 1.113e-3
0.138, 1.114e-3
0.137, 1.115e-3
0.136, 1.116e-3
0.135, 1.117e-3
0.134, 1.118e-3
0.133, 1.119e-3
0.132, 1.120e-3
0.131, 1.121e-3
0.130, 1.123e-3
0.129, 1.123e-3
0.128, 1.125e-3
0.127, 1.126e-3
0.126, 1.127e-3
0.125, 1.129e-3
0.124, 1.130e-3
0.123, 1.131e-3
0.122, 1.133e-3
0.121, 1.134e-3
0.120, 1.136e-3
0.119, 1.137e-3
0.118, 1.139e-3
0.117, 1.141e-3
0.116, 1.142e-3
0.115, 1.143e-3
0.114, 1.145e-3
0.113, 1.146e-3
0.112, 1.148e-3
0.111, 1.150e-3
0.110, 1.151e-3
0.109, 1.154e-3
0.108, 1.155e-3
0.107, 1.157e-3
0.106, 1.159e-3
0.105, 1.160e-3
0.104, 1.162e-3
0.103, 1.164e-3
0.102, 1.167e-3
0.101, 1.169e-3
0.100, 1.171e-3
0.099, 1.173e-3
0.098, 1.175e-3
0.097, 1.177e-3
0.096, 1.179e-3
0.095, 1.181e-3
0.094, 1.183e-3
0.093, 1.186e-3
0.092, 1.188e-3
0.091, 1.190e-3
0.090, 1.193e-3
0.089, 1.195e-3
0.088, 1.197e-3
0.087, 1.200e-3
0.086, 1.202e-3
0.085, 1.205e-3
0.084, 1.208e-3
0.083, 1.211e-3
0.082, 1.213e-3
0.081, 1.216e-3
0.080, 1.218e-3
0.079, 1.221e-3
0.078, 1.223e-3
0.077, 1.227e-3
0.076, 1.230e-3
0.075, 1.233e-3
0.074, 1.235e-3
0.073, 1.238e-3
0.072, 1.241e-3
0.071, 1.244e-3
0.070, 1.247e-3
0.069, 1.251e-3
0.068, 1.253e-3
0.067, 1.256e-3
0.066, 1.260e-3
0.065, 1.263e-3
0.064, 1.266e-3
0.063, 1.270e-3
0.062, 1.274e-3
0.061, 1.277e-3
0.060, 1.280e-3
0.059, 1.284e-3
0.058, 1.288e-3
0.057, 1.292e-3
0.056, 1.295e-3
0.055, 1.299e-3
0.054, 1.303e-3
0.053, 1.307e-3
0.052, 1.311e-3
0.051, 1.315e-3
0.050, 1.320e-3
0.049, 1.324e-3
0.048, 1.328e-3
0.047, 1.333e-3
0.046, 1.337e-3
0.045, 1.341e-3
0.044, 1.345e-3
0.043, 1.350e-3
0.042, 1.354e-3
0.041, 1.359e-3
0.040, 1.364e-3
0.039, 1.368e-3
0.038, 1.373e-3
0.037, 1.378e-3
0.036, 1.382e-3
0.035, 1.387e-3
0.034, 1.392e-3
0.033, 1.397e-3
0.032, 1.402e-3
0.031, 1.407e-3
0.030, 1.413e-3
0.029, 1.418e-3
0.028, 1.423e-3
0.027, 1.429e-3
0.026, 1.434e-3
0.025, 1.440e-3
0.024, 1.445e-3
0.023, 1.451e-3
0.022, 1.456e-3
0.021, 1.462e-3
0.020, 1.467e-3
0.019, 1.473e-3
0.018, 1.479e-3
0.017, 1.485e-3
0.016, 1.491e-3
0.015, 1.497e-3
0.014, 1.503e-3
0.013, 1.510e-3
0.012, 1.516e-3
0.011, 1.522e-3
0.010, 1.529e-3
0.009, 1.535e-3
0.008, 1.541e-3
0.007, 1.548e-3
0.006, 1.555e-3
0.005, 1.562e-3
0.004, 1.568e-3
0.003, 1.575e-3
0.002, 1.582e-3
0.001, 1.589e-3
0.000, 1.596e-3
-0.001, 1.604e-3
-0.002, 1.611e-3
-0.003, 1.618e-3
-0.004, 1.625e-3
-0.005, 1.632e-3
-0.006, 1.640e-3
-0.007, 1.647e-3
-0.008, 1.655e-3
-0.009, 1.663e-3
-0.010, 1.670e-3
-0.011, 1.678e-3
-0.012, 1.685e-3
-0.013, 1.693e-3
-0.014, 1.701e-3
-0.015, 1.709e-3
-0.016, 1.716e-3
-0.017, 1.724e-3
-0.018, 1.732e-3
-0.019, 1.740e-3
-0.020, 1.749e-3
-0.021, 1.756e-3
-0.022, 1.764e-3
-0.023, 1.772e-3
-0.024, 1.780e-3
-0.025, 1.788e-3
-0.026, 1.796e-3
-0.027, 1.805e-3
-0.028, 1.813e-3
-0.029, 1.821e-3
-0.030, 1.829e-3
-0.031, 1.838e-3
-0.032, 1.846e-3
-0.033, 1.855e-3
-0.034, 1.863e-3
-0.035, 1.871e-3
-0.036, 1.880e-3
-0.037, 1.889e-3
-0.038, 1.897e-3
-0.039, 1.905e-3
-0.040, 1.914e-3
-0.041, 1.923e-3
-0.042, 1.931e-3
-0.043, 1.940e-3
-0.044, 1.949e-3
-0.045, 1.957e-3
-0.046, 1.966e-3
-0.047, 1.975e-3
-0.048, 1.984e-3
-0.049, 1.993e-3
-0.050, 2.001e-3
-0.051, 2.010e-3
-0.052, 2.019e-3
-0.053, 2.027e-3
-0.054, 2.036e-3
-0.055, 2.045e-3
-0.056, 2.053e-3
-0.057, 2.062e-3
-0.058, 2.071e-3
-0.059, 2.080e-3
-0.060, 2.088e-3
-0.061, 2.097e-3
-0.062, 2.106e-3
-0.063, 2.114e-3
-0.064, 2.123e-3
-0.065, 2.132e-3
-0.066, 2.140e-3
-0.067, 2.149e-3
-0.068, 2.158e-3
-0.069, 2.166e-3
-0.070, 2.175e-3
-0.071, 2.184e-3
-0.072, 2.193e-3
-0.073, 2.201e-3
-0.074, 2.209e-3
-0.075, 2.218e-3
-0.076, 2.226e-3
-0.077, 2.234e-3
-0.078, 2.243e-3
-0.079, 2.251e-3
-0.080, 2.259e-3
-0.081, 2.267e-3
-0.082, 2.275e-3
-0.083, 2.284e-3
-0.084, 2.293e-3
-0.085, 2.300e-3
-0.086, 2.308e-3
-0.087, 2.317e-3
-0.088, 2.325e-3
-0.089, 2.333e-3
-0.090, 2.341e-3
-0.091, 2.349e-3
-0.092, 2.357e-3
-0.093, 2.364e-3
-0.094, 2.372e-3
-0.095, 2.379e-3
-0.096, 2.387e-3
-0.097, 2.395e-3
-0.098, 2.402e-3
-0.099, 2.410e-3
