Mar. 10, 2025   14:00:16
Cyclic Voltammetry
File: f:\catholicate college\new ruo2\ruo2 scr 0.002 [-0.1-1.1].txt
Data Source:  Experiment
Instrument Model:  CHI6087E
Header: 
Note: 

Init E (V) = -0.1
High E (V) = 1.1
Low E (V) = -0.1
Init P/N = P
Scan Rate (V/s) = 0.002
Segment = 4
Sample Interval (V) = 0.001
Quiet Time (sec) = 2
Sensitivity (A/V) = 0.01

Results:

Channel 1:
Segment 1:
Ep = 0.403V
ip = -1.469e-4A
Ah = -7.525e-3C

Segment 2:

Segment 3:
Ep = 0.401V
ip = -1.195e-4A
Ah = -5.991e-3C

Segment 4:

Potential/V, Current/A

-0.100, 1.534e-3
-0.099, 1.365e-3
-0.098, 1.225e-3
-0.097, 1.107e-3
-0.096, 1.006e-3
-0.095, 9.179e-4
-0.094, 8.387e-4
-0.093, 7.693e-4
-0.092, 7.071e-4
-0.091, 6.509e-4
-0.090, 5.992e-4
-0.089, 5.518e-4
-0.088, 5.083e-4
-0.087, 4.678e-4
-0.086, 4.307e-4
-0.085, 3.954e-4
-0.084, 3.627e-4
-0.083, 3.321e-4
-0.082, 3.035e-4
-0.081, 2.763e-4
-0.080, 2.504e-4
-0.079, 2.264e-4
-0.078, 2.032e-4
-0.077, 1.811e-4
-0.076, 1.602e-4
-0.075, 1.402e-4
-0.074, 1.212e-4
-0.073, 1.023e-4
-0.072, 8.443e-5
-0.071, 6.710e-5
-0.070, 5.088e-5
-0.069, 3.523e-5
-0.068, 2.034e-5
-0.067, 6.086e-6
-0.066, -7.588e-6
-0.065, -2.129e-5
-0.064, -3.431e-5
-0.063, -4.684e-5
-0.062, -5.903e-5
-0.061, -7.035e-5
-0.060, -8.208e-5
-0.059, -9.267e-5
-0.058, -1.035e-4
-0.057, -1.139e-4
-0.056, -1.233e-4
-0.055, -1.330e-4
-0.054, -1.427e-4
-0.053, -1.517e-4
-0.052, -1.610e-4
-0.051, -1.699e-4
-0.050, -1.781e-4
-0.049, -1.863e-4
-0.048, -1.942e-4
-0.047, -2.016e-4
-0.046, -2.092e-4
-0.045, -2.166e-4
-0.044, -2.241e-4
-0.043, -2.310e-4
-0.042, -2.377e-4
-0.041, -2.444e-4
-0.040, -2.509e-4
-0.039, -2.574e-4
-0.038, -2.634e-4
-0.037, -2.695e-4
-0.036, -2.756e-4
-0.035, -2.815e-4
-0.034, -2.866e-4
-0.033, -2.921e-4
-0.032, -2.973e-4
-0.031, -3.030e-4
-0.030, -3.085e-4
-0.029, -3.131e-4
-0.028, -3.173e-4
-0.027, -3.214e-4
-0.026, -3.261e-4
-0.025, -3.309e-4
-0.024, -3.353e-4
-0.023, -3.397e-4
-0.022, -3.436e-4
-0.021, -3.480e-4
-0.020, -3.522e-4
-0.019, -3.562e-4
-0.018, -3.605e-4
-0.017, -3.643e-4
-0.016, -3.676e-4
-0.015, -3.716e-4
-0.014, -3.749e-4
-0.013, -3.785e-4
-0.012, -3.821e-4
-0.011, -3.854e-4
-0.010, -3.888e-4
-0.009, -3.923e-4
-0.008, -3.955e-4
-0.007, -3.990e-4
-0.006, -4.020e-4
-0.005, -4.053e-4
-0.004, -4.084e-4
-0.003, -4.109e-4
-0.002, -4.139e-4
-0.001, -4.169e-4
-0.000, -4.206e-4
0.001, -4.233e-4
0.002, -4.256e-4
0.003, -4.284e-4
0.004, -4.308e-4
0.005, -4.330e-4
0.006, -4.356e-4
0.007, -4.381e-4
0.008, -4.404e-4
0.009, -4.426e-4
0.010, -4.449e-4
0.011, -4.472e-4
0.012, -4.494e-4
0.013, -4.515e-4
0.014, -4.540e-4
0.015, -4.561e-4
0.016, -4.580e-4
0.017, -4.601e-4
0.018, -4.617e-4
0.019, -4.640e-4
0.020, -4.663e-4
0.021, -4.678e-4
0.022, -4.696e-4
0.023, -4.715e-4
0.024, -4.732e-4
0.025, -4.753e-4
0.026, -4.770e-4
0.027, -4.786e-4
0.028, -4.803e-4
0.029, -4.817e-4
0.030, -4.834e-4
0.031, -4.851e-4
0.032, -4.864e-4
0.033, -4.879e-4
0.034, -4.889e-4
0.035, -4.903e-4
0.036, -4.918e-4
0.037, -4.927e-4
0.038, -4.942e-4
0.039, -4.957e-4
0.040, -4.965e-4
0.041, -4.980e-4
0.042, -4.990e-4
0.043, -5.005e-4
0.044, -5.021e-4
0.045, -5.030e-4
0.046, -5.042e-4
0.047, -5.055e-4
0.048, -5.063e-4
0.049, -5.074e-4
0.050, -5.082e-4
0.051, -5.094e-4
0.052, -5.103e-4
0.053, -5.115e-4
0.054, -5.126e-4
0.055, -5.134e-4
0.056, -5.142e-4
0.057, -5.152e-4
0.058, -5.159e-4
0.059, -5.168e-4
0.060, -5.179e-4
0.061, -5.183e-4
0.062, -5.193e-4
0.063, -5.200e-4
0.064, -5.205e-4
0.065, -5.215e-4
0.066, -5.223e-4
0.067, -5.226e-4
0.068, -5.236e-4
0.069, -5.241e-4
0.070, -5.246e-4
0.071, -5.253e-4
0.072, -5.258e-4
0.073, -5.263e-4
0.074, -5.266e-4
0.075, -5.274e-4
0.076, -5.281e-4
0.077, -5.285e-4
0.078, -5.290e-4
0.079, -5.295e-4
0.080, -5.300e-4
0.081, -5.305e-4
0.082, -5.308e-4
0.083, -5.314e-4
0.084, -5.318e-4
0.085, -5.320e-4
0.086, -5.321e-4
0.087, -5.327e-4
0.088, -5.329e-4
0.089, -5.331e-4
0.090, -5.333e-4
0.091, -5.335e-4
0.092, -5.337e-4
0.093, -5.340e-4
0.094, -5.343e-4
0.095, -5.345e-4
0.096, -5.348e-4
0.097, -5.352e-4
0.098, -5.353e-4
0.099, -5.356e-4
0.100, -5.358e-4
0.101, -5.361e-4
0.102, -5.364e-4
0.103, -5.370e-4
0.104, -5.370e-4
0.105, -5.372e-4
0.106, -5.371e-4
0.107, -5.374e-4
0.108, -5.374e-4
0.109, -5.376e-4
0.110, -5.376e-4
0.111, -5.377e-4
0.112, -5.376e-4
0.113, -5.376e-4
0.114, -5.379e-4
0.115, -5.377e-4
0.116, -5.375e-4
0.117, -5.377e-4
0.118, -5.378e-4
0.119, -5.380e-4
0.120, -5.382e-4
0.121, -5.382e-4
0.122, -5.387e-4
0.123, -5.384e-4
0.124, -5.383e-4
0.125, -5.382e-4
0.126, -5.384e-4
0.127, -5.384e-4
0.128, -5.385e-4
0.129, -5.385e-4
0.130, -5.383e-4
0.131, -5.383e-4
0.132, -5.385e-4
0.133, -5.383e-4
0.134, -5.386e-4
0.135, -5.391e-4
0.136, -5.386e-4
0.137, -5.388e-4
0.138, -5.387e-4
0.139, -5.386e-4
0.140, -5.385e-4
0.141, -5.386e-4
0.142, -5.386e-4
0.143, -5.387e-4
0.144, -5.386e-4
0.145, -5.387e-4
0.146, -5.384e-4
0.147, -5.387e-4
0.148, -5.385e-4
0.149, -5.385e-4
0.150, -5.386e-4
0.151, -5.386e-4
0.152, -5.385e-4
0.153, -5.387e-4
0.154, -5.388e-4
0.155, -5.389e-4
0.156, -5.390e-4
0.157, -5.388e-4
0.158, -5.385e-4
0.159, -5.386e-4
0.160, -5.387e-4
0.161, -5.388e-4
0.162, -5.389e-4
0.163, -5.389e-4
0.164, -5.389e-4
0.165, -5.390e-4
0.166, -5.388e-4
0.167, -5.390e-4
0.168, -5.388e-4
0.169, -5.390e-4
0.170, -5.388e-4
0.171, -5.391e-4
0.172, -5.394e-4
0.173, -5.393e-4
0.174, -5.392e-4
0.175, -5.394e-4
0.176, -5.395e-4
0.177, -5.396e-4
0.178, -5.395e-4
0.179, -5.396e-4
0.180, -5.396e-4
0.181, -5.395e-4
0.182, -5.397e-4
0.183, -5.396e-4
0.184, -5.397e-4
0.185, -5.403e-4
0.186, -5.403e-4
0.187, -5.408e-4
0.188, -5.406e-4
0.189, -5.408e-4
0.190, -5.411e-4
0.191, -5.415e-4
0.192, -5.414e-4
0.193, -5.417e-4
0.194, -5.419e-4
0.195, -5.416e-4
0.196, -5.420e-4
0.197, -5.421e-4
0.198, -5.425e-4
0.199, -5.428e-4
0.200, -5.424e-4
0.201, -5.432e-4
0.202, -5.432e-4
0.203, -5.432e-4
0.204, -5.435e-4
0.205, -5.437e-4
0.206, -5.444e-4
0.207, -5.446e-4
0.208, -5.446e-4
0.209, -5.449e-4
0.210, -5.452e-4
0.211, -5.453e-4
0.212, -5.458e-4
0.213, -5.459e-4
0.214, -5.459e-4
0.215, -5.466e-4
0.216, -5.468e-4
0.217, -5.470e-4
0.218, -5.471e-4
0.219, -5.473e-4
0.220, -5.480e-4
0.221, -5.484e-4
0.222, -5.487e-4
0.223, -5.494e-4
0.224, -5.496e-4
0.225, -5.502e-4
0.226, -5.502e-4
0.227, -5.508e-4
0.228, -5.509e-4
0.229, -5.512e-4
0.230, -5.518e-4
0.231, -5.525e-4
0.232, -5.526e-4
0.233, -5.531e-4
0.234, -5.537e-4
0.235, -5.544e-4
0.236, -5.550e-4
0.237, -5.558e-4
0.238, -5.562e-4
0.239, -5.569e-4
0.240, -5.571e-4
0.241, -5.576e-4
0.242, -5.584e-4
0.243, -5.590e-4
0.244, -5.596e-4
0.245, -5.599e-4
0.246, -5.606e-4
0.247, -5.610e-4
0.248, -5.617e-4
0.249, -5.624e-4
0.250, -5.633e-4
0.251, -5.641e-4
0.252, -5.647e-4
0.253, -5.651e-4
0.254, -5.660e-4
0.255, -5.664e-4
0.256, -5.676e-4
0.257, -5.685e-4
0.258, -5.692e-4
0.259, -5.698e-4
0.260, -5.706e-4
0.261, -5.713e-4
0.262, -5.725e-4
0.263, -5.732e-4
0.264, -5.739e-4
0.265, -5.748e-4
0.266, -5.757e-4
0.267, -5.763e-4
0.268, -5.773e-4
0.269, -5.782e-4
0.270, -5.788e-4
0.271, -5.801e-4
0.272, -5.805e-4
0.273, -5.815e-4
0.274, -5.825e-4
0.275, -5.836e-4
0.276, -5.846e-4
0.277, -5.854e-4
0.278, -5.865e-4
0.279, -5.874e-4
0.280, -5.878e-4
0.281, -5.890e-4
0.282, -5.901e-4
0.283, -5.913e-4
0.284, -5.920e-4
0.285, -5.927e-4
0.286, -5.938e-4
0.287, -5.949e-4
0.288, -5.958e-4
0.289, -5.969e-4
0.290, -5.978e-4
0.291, -5.984e-4
0.292, -5.997e-4
0.293, -6.007e-4
0.294, -6.017e-4
0.295, -6.028e-4
0.296, -6.037e-4
0.297, -6.046e-4
0.298, -6.059e-4
0.299, -6.068e-4
0.300, -6.082e-4
0.301, -6.091e-4
0.302, -6.101e-4
0.303, -6.114e-4
0.304, -6.122e-4
0.305, -6.136e-4
0.306, -6.147e-4
0.307, -6.166e-4
0.308, -6.178e-4
0.309, -6.188e-4
0.310, -6.199e-4
0.311, -6.211e-4
0.312, -6.218e-4
0.313, -6.230e-4
0.314, -6.243e-4
0.315, -6.253e-4
0.316, -6.263e-4
0.317, -6.269e-4
0.318, -6.280e-4
0.319, -6.291e-4
0.320, -6.303e-4
0.321, -6.314e-4
0.322, -6.324e-4
0.323, -6.335e-4
0.324, -6.348e-4
0.325, -6.358e-4
0.326, -6.371e-4
0.327, -6.384e-4
0.328, -6.393e-4
0.329, -6.404e-4
0.330, -6.416e-4
0.331, -6.425e-4
0.332, -6.440e-4
0.333, -6.451e-4
0.334, -6.461e-4
0.335, -6.469e-4
0.336, -6.479e-4
0.337, -6.490e-4
0.338, -6.497e-4
0.339, -6.507e-4
0.340, -6.520e-4
0.341, -6.529e-4
0.342, -6.536e-4
0.343, -6.546e-4
0.344, -6.553e-4
0.345, -6.567e-4
0.346, -6.576e-4
0.347, -6.583e-4
0.348, -6.595e-4
0.349, -6.602e-4
0.350, -6.612e-4
0.351, -6.624e-4
0.352, -6.634e-4
0.353, -6.640e-4
0.354, -6.654e-4
0.355, -6.661e-4
0.356, -6.672e-4
0.357, -6.679e-4
0.358, -6.694e-4
0.359, -6.703e-4
0.360, -6.707e-4
0.361, -6.716e-4
0.362, -6.725e-4
0.363, -6.731e-4
0.364, -6.741e-4
0.365, -6.748e-4
0.366, -6.754e-4
0.367, -6.763e-4
0.368, -6.769e-4
0.369, -6.774e-4
0.370, -6.778e-4
0.371, -6.785e-4
0.372, -6.790e-4
0.373, -6.796e-4
0.374, -6.800e-4
0.375, -6.806e-4
0.376, -6.810e-4
0.377, -6.815e-4
0.378, -6.821e-4
0.379, -6.826e-4
0.380, -6.832e-4
0.381, -6.833e-4
0.382, -6.836e-4
0.383, -6.841e-4
0.384, -6.843e-4
0.385, -6.851e-4
0.386, -6.850e-4
0.387, -6.853e-4
0.388, -6.856e-4
0.389, -6.857e-4
0.390, -6.860e-4
0.391, -6.866e-4
0.392, -6.865e-4
0.393, -6.870e-4
0.394, -6.868e-4
0.395, -6.872e-4
0.396, -6.873e-4
0.397, -6.872e-4
0.398, -6.875e-4
0.399, -6.873e-4
0.400, -6.874e-4
0.401, -6.876e-4
0.402, -6.876e-4
0.403, -6.876e-4
0.404, -6.876e-4
0.405, -6.872e-4
0.406, -6.869e-4
0.407, -6.869e-4
0.408, -6.863e-4
0.409, -6.866e-4
0.410, -6.865e-4
0.411, -6.860e-4
0.412, -6.858e-4
0.413, -6.856e-4
0.414, -6.853e-4
0.415, -6.853e-4
0.416, -6.850e-4
0.417, -6.846e-4
0.418, -6.844e-4
0.419, -6.841e-4
0.420, -6.837e-4
0.421, -6.831e-4
0.422, -6.828e-4
0.423, -6.826e-4
0.424, -6.819e-4
0.425, -6.817e-4
0.426, -6.813e-4
0.427, -6.806e-4
0.428, -6.805e-4
0.429, -6.801e-4
0.430, -6.798e-4
0.431, -6.792e-4
0.432, -6.786e-4
0.433, -6.782e-4
0.434, -6.776e-4
0.435, -6.773e-4
0.436, -6.767e-4
0.437, -6.763e-4
0.438, -6.756e-4
0.439, -6.749e-4
0.440, -6.740e-4
0.441, -6.738e-4
0.442, -6.735e-4
0.443, -6.727e-4
0.444, -6.720e-4
0.445, -6.713e-4
0.446, -6.708e-4
0.447, -6.705e-4
0.448, -6.696e-4
0.449, -6.691e-4
0.450, -6.685e-4
0.451, -6.678e-4
0.452, -6.671e-4
0.453, -6.665e-4
0.454, -6.662e-4
0.455, -6.656e-4
0.456, -6.652e-4
0.457, -6.645e-4
0.458, -6.637e-4
0.459, -6.628e-4
0.460, -6.627e-4
0.461, -6.621e-4
0.462, -6.613e-4
0.463, -6.607e-4
0.464, -6.599e-4
0.465, -6.591e-4
0.466, -6.585e-4
0.467, -6.578e-4
0.468, -6.574e-4
0.469, -6.563e-4
0.470, -6.559e-4
0.471, -6.555e-4
0.472, -6.545e-4
0.473, -6.539e-4
0.474, -6.534e-4
0.475, -6.528e-4
0.476, -6.525e-4
0.477, -6.519e-4
0.478, -6.512e-4
0.479, -6.506e-4
0.480, -6.501e-4
0.481, -6.493e-4
0.482, -6.489e-4
0.483, -6.483e-4
0.484, -6.475e-4
0.485, -6.469e-4
0.486, -6.464e-4
0.487, -6.457e-4
0.488, -6.451e-4
0.489, -6.443e-4
0.490, -6.437e-4
0.491, -6.428e-4
0.492, -6.420e-4
0.493, -6.418e-4
0.494, -6.411e-4
0.495, -6.409e-4
0.496, -6.402e-4
0.497, -6.397e-4
0.498, -6.394e-4
0.499, -6.392e-4
0.500, -6.385e-4
0.501, -6.382e-4
0.502, -6.373e-4
0.503, -6.373e-4
0.504, -6.366e-4
0.505, -6.367e-4
0.506, -6.363e-4
0.507, -6.358e-4
0.508, -6.353e-4
0.509, -6.347e-4
0.510, -6.338e-4
0.511, -6.336e-4
0.512, -6.335e-4
0.513, -6.330e-4
0.514, -6.324e-4
0.515, -6.317e-4
0.516, -6.312e-4
0.517, -6.303e-4
0.518, -6.300e-4
0.519, -6.297e-4
0.520, -6.290e-4
0.521, -6.286e-4
0.522, -6.280e-4
0.523, -6.277e-4
0.524, -6.272e-4
0.525, -6.265e-4
0.526, -6.261e-4
0.527, -6.260e-4
0.528, -6.252e-4
0.529, -6.249e-4
0.530, -6.245e-4
0.531, -6.244e-4
0.532, -6.238e-4
0.533, -6.232e-4
0.534, -6.229e-4
0.535, -6.225e-4
0.536, -6.221e-4
0.537, -6.221e-4
0.538, -6.215e-4
0.539, -6.210e-4
0.540, -6.204e-4
0.541, -6.198e-4
0.542, -6.196e-4
0.543, -6.190e-4
0.544, -6.184e-4
0.545, -6.179e-4
0.546, -6.175e-4
0.547, -6.167e-4
0.548, -6.163e-4
0.549, -6.157e-4
0.550, -6.153e-4
0.551, -6.150e-4
0.552, -6.142e-4
0.553, -6.141e-4
0.554, -6.133e-4
0.555, -6.129e-4
0.556, -6.125e-4
0.557, -6.121e-4
0.558, -6.118e-4
0.559, -6.110e-4
0.560, -6.106e-4
0.561, -6.102e-4
0.562, -6.095e-4
0.563, -6.091e-4
0.564, -6.086e-4
0.565, -6.080e-4
0.566, -6.078e-4
0.567, -6.073e-4
0.568, -6.068e-4
0.569, -6.065e-4
0.570, -6.062e-4
0.571, -6.058e-4
0.572, -6.053e-4
0.573, -6.041e-4
0.574, -6.038e-4
0.575, -6.032e-4
0.576, -6.022e-4
0.577, -6.023e-4
0.578, -6.016e-4
0.579, -6.008e-4
0.580, -6.002e-4
0.581, -5.994e-4
0.582, -5.991e-4
0.583, -5.986e-4
0.584, -5.979e-4
0.585, -5.972e-4
0.586, -5.969e-4
0.587, -5.962e-4
0.588, -5.961e-4
0.589, -5.955e-4
0.590, -5.950e-4
0.591, -5.947e-4
0.592, -5.939e-4
0.593, -5.934e-4
0.594, -5.928e-4
0.595, -5.926e-4
0.596, -5.922e-4
0.597, -5.914e-4
0.598, -5.910e-4
0.599, -5.904e-4
0.600, -5.895e-4
0.601, -5.894e-4
0.602, -5.889e-4
0.603, -5.881e-4
0.604, -5.876e-4
0.605, -5.869e-4
0.606, -5.863e-4
0.607, -5.859e-4
0.608, -5.853e-4
0.609, -5.849e-4
0.610, -5.843e-4
0.611, -5.837e-4
0.612, -5.829e-4
0.613, -5.825e-4
0.614, -5.821e-4
0.615, -5.818e-4
0.616, -5.814e-4
0.617, -5.807e-4
0.618, -5.802e-4
0.619, -5.793e-4
0.620, -5.792e-4
0.621, -5.788e-4
0.622, -5.784e-4
0.623, -5.780e-4
0.624, -5.774e-4
0.625, -5.770e-4
0.626, -5.765e-4
0.627, -5.761e-4
0.628, -5.759e-4
0.629, -5.750e-4
0.630, -5.743e-4
0.631, -5.740e-4
0.632, -5.734e-4
0.633, -5.726e-4
0.634, -5.723e-4
0.635, -5.714e-4
0.636, -5.710e-4
0.637, -5.699e-4
0.638, -5.697e-4
0.639, -5.692e-4
0.640, -5.687e-4
0.641, -5.682e-4
0.642, -5.678e-4
0.643, -5.672e-4
0.644, -5.668e-4
0.645, -5.660e-4
0.646, -5.659e-4
0.647, -5.652e-4
0.648, -5.645e-4
0.649, -5.642e-4
0.650, -5.638e-4
0.651, -5.630e-4
0.652, -5.627e-4
0.653, -5.618e-4
0.654, -5.615e-4
0.655, -5.606e-4
0.656, -5.602e-4
0.657, -5.598e-4
0.658, -5.593e-4
0.659, -5.588e-4
0.660, -5.585e-4
0.661, -5.581e-4
0.662, -5.577e-4
0.663, -5.571e-4
0.664, -5.566e-4
0.665, -5.561e-4
0.666, -5.554e-4
0.667, -5.545e-4
0.668, -5.544e-4
0.669, -5.538e-4
0.670, -5.536e-4
0.671, -5.532e-4
0.672, -5.528e-4
0.673, -5.528e-4
0.674, -5.520e-4
0.675, -5.513e-4
0.676, -5.511e-4
0.677, -5.507e-4
0.678, -5.504e-4
0.679, -5.500e-4
0.680, -5.492e-4
0.681, -5.492e-4
0.682, -5.487e-4
0.683, -5.483e-4
0.684, -5.480e-4
0.685, -5.475e-4
0.686, -5.470e-4
0.687, -5.465e-4
0.688, -5.458e-4
0.689, -5.458e-4
0.690, -5.455e-4
0.691, -5.449e-4
0.692, -5.446e-4
0.693, -5.442e-4
0.694, -5.437e-4
0.695, -5.431e-4
0.696, -5.425e-4
0.697, -5.422e-4
0.698, -5.424e-4
0.699, -5.417e-4
0.700, -5.415e-4
0.701, -5.407e-4
0.702, -5.405e-4
0.703, -5.400e-4
0.704, -5.394e-4
0.705, -5.391e-4
0.706, -5.389e-4
0.707, -5.380e-4
0.708, -5.381e-4
0.709, -5.373e-4
0.710, -5.372e-4
0.711, -5.369e-4
0.712, -5.362e-4
0.713, -5.360e-4
0.714, -5.355e-4
0.715, -5.349e-4
0.716, -5.349e-4
0.717, -5.350e-4
0.718, -5.344e-4
0.719, -5.341e-4
0.720, -5.335e-4
0.721, -5.332e-4
0.722, -5.325e-4
0.723, -5.323e-4
0.724, -5.323e-4
0.725, -5.315e-4
0.726, -5.316e-4
0.727, -5.313e-4
0.728, -5.306e-4
0.729, -5.302e-4
0.730, -5.298e-4
0.731, -5.292e-4
0.732, -5.291e-4
0.733, -5.286e-4
0.734, -5.281e-4
0.735, -5.280e-4
0.736, -5.275e-4
0.737, -5.274e-4
0.738, -5.267e-4
0.739, -5.262e-4
0.740, -5.258e-4
0.741, -5.254e-4
0.742, -5.254e-4
0.743, -5.253e-4
0.744, -5.251e-4
0.745, -5.249e-4
0.746, -5.245e-4
0.747, -5.241e-4
0.748, -5.240e-4
0.749, -5.236e-4
0.750, -5.232e-4
0.751, -5.231e-4
0.752, -5.226e-4
0.753, -5.224e-4
0.754, -5.222e-4
0.755, -5.217e-4
0.756, -5.218e-4
0.757, -5.213e-4
0.758, -5.211e-4
0.759, -5.210e-4
0.760, -5.206e-4
0.761, -5.206e-4
0.762, -5.206e-4
0.763, -5.202e-4
0.764, -5.199e-4
0.765, -5.196e-4
0.766, -5.195e-4
0.767, -5.191e-4
0.768, -5.193e-4
0.769, -5.191e-4
0.770, -5.189e-4
0.771, -5.186e-4
0.772, -5.183e-4
0.773, -5.179e-4
0.774, -5.177e-4
0.775, -5.180e-4
0.776, -5.175e-4
0.777, -5.172e-4
0.778, -5.173e-4
0.779, -5.172e-4
0.780, -5.172e-4
0.781, -5.168e-4
0.782, -5.165e-4
0.783, -5.165e-4
0.784, -5.162e-4
0.785, -5.162e-4
0.786, -5.161e-4
0.787, -5.159e-4
0.788, -5.158e-4
0.789, -5.156e-4
0.790, -5.153e-4
0.791, -5.153e-4
0.792, -5.150e-4
0.793, -5.152e-4
0.794, -5.151e-4
0.795, -5.145e-4
0.796, -5.148e-4
0.797, -5.145e-4
0.798, -5.146e-4
0.799, -5.147e-4
0.800, -5.145e-4
0.801, -5.150e-4
0.802, -5.146e-4
0.803, -5.145e-4
0.804, -5.149e-4
0.805, -5.144e-4
0.806, -5.145e-4
0.807, -5.144e-4
0.808, -5.140e-4
0.809, -5.145e-4
0.810, -5.145e-4
0.811, -5.145e-4
0.812, -5.146e-4
0.813, -5.147e-4
0.814, -5.149e-4
0.815, -5.149e-4
0.816, -5.147e-4
0.817, -5.150e-4
0.818, -5.152e-4
0.819, -5.161e-4
0.820, -5.168e-4
0.821, -5.165e-4
0.822, -5.167e-4
0.823, -5.166e-4
0.824, -5.165e-4
0.825, -5.168e-4
0.826, -5.172e-4
0.827, -5.169e-4
0.828, -5.175e-4
0.829, -5.174e-4
0.830, -5.174e-4
0.831, -5.179e-4
0.832, -5.180e-4
0.833, -5.183e-4
0.834, -5.182e-4
0.835, -5.185e-4
0.836, -5.187e-4
0.837, -5.187e-4
0.838, -5.189e-4
0.839, -5.193e-4
0.840, -5.193e-4
0.841, -5.196e-4
0.842, -5.197e-4
0.843, -5.199e-4
0.844, -5.203e-4
0.845, -5.207e-4
0.846, -5.211e-4
0.847, -5.213e-4
0.848, -5.217e-4
0.849, -5.217e-4
0.850, -5.219e-4
0.851, -5.228e-4
0.852, -5.233e-4
0.853, -5.236e-4
0.854, -5.239e-4
0.855, -5.243e-4
0.856, -5.245e-4
0.857, -5.249e-4
0.858, -5.252e-4
0.859, -5.257e-4
0.860, -5.260e-4
0.861, -5.265e-4
0.862, -5.268e-4
0.863, -5.275e-4
0.864, -5.281e-4
0.865, -5.286e-4
0.866, -5.289e-4
0.867, -5.292e-4
0.868, -5.301e-4
0.869, -5.303e-4
0.870, -5.310e-4
0.871, -5.320e-4
0.872, -5.320e-4
0.873, -5.326e-4
0.874, -5.329e-4
0.875, -5.335e-4
0.876, -5.341e-4
0.877, -5.347e-4
0.878, -5.353e-4
0.879, -5.360e-4
0.880, -5.365e-4
0.881, -5.370e-4
0.882, -5.378e-4
0.883, -5.387e-4
0.884, -5.393e-4
0.885, -5.396e-4
0.886, -5.406e-4
0.887, -5.411e-4
0.888, -5.416e-4
0.889, -5.426e-4
0.890, -5.433e-4
0.891, -5.439e-4
0.892, -5.449e-4
0.893, -5.454e-4
0.894, -5.460e-4
0.895, -5.469e-4
0.896, -5.476e-4
0.897, -5.484e-4
0.898, -5.490e-4
0.899, -5.498e-4
0.900, -5.504e-4
0.901, -5.511e-4
0.902, -5.517e-4
0.903, -5.530e-4
0.904, -5.533e-4
0.905, -5.544e-4
0.906, -5.549e-4
0.907, -5.558e-4
0.908, -5.567e-4
0.909, -5.572e-4
0.910, -5.582e-4
0.911, -5.593e-4
0.912, -5.596e-4
0.913, -5.605e-4
0.914, -5.614e-4
0.915, -5.621e-4
0.916, -5.631e-4
0.917, -5.637e-4
0.918, -5.647e-4
0.919, -5.652e-4
0.920, -5.659e-4
0.921, -5.675e-4
0.922, -5.683e-4
0.923, -5.693e-4
0.924, -5.702e-4
0.925, -5.707e-4
0.926, -5.714e-4
0.927, -5.726e-4
0.928, -5.733e-4
0.929, -5.736e-4
0.930, -5.750e-4
0.931, -5.757e-4
0.932, -5.763e-4
0.933, -5.771e-4
0.934, -5.778e-4
0.935, -5.789e-4
0.936, -5.799e-4
0.937, -5.803e-4
0.938, -5.813e-4
0.939, -5.820e-4
0.940, -5.829e-4
0.941, -5.835e-4
0.942, -5.845e-4
0.943, -5.854e-4
0.944, -5.859e-4
0.945, -5.870e-4
0.946, -5.878e-4
0.947, -5.890e-4
0.948, -5.898e-4
0.949, -5.903e-4
0.950, -5.913e-4
0.951, -5.920e-4
0.952, -5.926e-4
0.953, -5.933e-4
0.954, -5.944e-4
0.955, -5.951e-4
0.956, -5.958e-4
0.957, -5.965e-4
0.958, -5.973e-4
0.959, -5.982e-4
0.960, -5.986e-4
0.961, -5.993e-4
0.962, -6.001e-4
0.963, -6.009e-4
0.964, -6.018e-4
0.965, -6.022e-4
0.966, -6.029e-4
0.967, -6.042e-4
0.968, -6.049e-4
0.969, -6.056e-4
0.970, -6.061e-4
0.971, -6.065e-4
0.972, -6.071e-4
0.973, -6.081e-4
0.974, -6.089e-4
0.975, -6.093e-4
0.976, -6.098e-4
0.977, -6.103e-4
0.978, -6.112e-4
0.979, -6.117e-4
0.980, -6.124e-4
0.981, -6.131e-4
0.982, -6.136e-4
0.983, -6.143e-4
0.984, -6.143e-4
0.985, -6.151e-4
0.986, -6.160e-4
0.987, -6.163e-4
0.988, -6.172e-4
0.989, -6.177e-4
0.990, -6.181e-4
0.991, -6.186e-4
0.992, -6.194e-4
0.993, -6.199e-4
0.994, -6.205e-4
0.995, -6.212e-4
0.996, -6.218e-4
0.997, -6.220e-4
0.998, -6.229e-4
0.999, -6.233e-4
1.000, -6.234e-4
1.001, -6.238e-4
1.002, -6.241e-4
1.003, -6.240e-4
1.004, -6.248e-4
1.005, -6.250e-4
1.006, -6.251e-4
1.007, -6.258e-4
1.008, -6.260e-4
1.009, -6.266e-4
1.010, -6.267e-4
1.011, -6.270e-4
1.012, -6.275e-4
1.013, -6.277e-4
1.014, -6.283e-4
1.015, -6.284e-4
1.016, -6.286e-4
1.017, -6.291e-4
1.018, -6.295e-4
1.019, -6.297e-4
1.020, -6.299e-4
1.021, -6.299e-4
1.022, -6.307e-4
1.023, -6.309e-4
1.024, -6.313e-4
1.025, -6.317e-4
1.026, -6.318e-4
1.027, -6.322e-4
1.028, -6.327e-4
1.029, -6.326e-4
1.030, -6.332e-4
1.031, -6.338e-4
1.032, -6.337e-4
1.033, -6.342e-4
1.034, -6.343e-4
1.035, -6.343e-4
1.036, -6.348e-4
1.037, -6.350e-4
1.038, -6.355e-4
1.039, -6.359e-4
1.040, -6.362e-4
1.041, -6.370e-4
1.042, -6.371e-4
1.043, -6.381e-4
1.044, -6.388e-4
1.045, -6.387e-4
1.046, -6.393e-4
1.047, -6.400e-4
1.048, -6.402e-4
1.049, -6.407e-4
1.050, -6.413e-4
1.051, -6.419e-4
1.052, -6.423e-4
1.053, -6.428e-4
1.054, -6.434e-4
1.055, -6.437e-4
1.056, -6.443e-4
1.057, -6.449e-4
1.058, -6.456e-4
1.059, -6.461e-4
1.060, -6.467e-4
1.061, -6.472e-4
1.062, -6.479e-4
1.063, -6.491e-4
1.064, -6.494e-4
1.065, -6.501e-4
1.066, -6.511e-4
1.067, -6.517e-4
1.068, -6.526e-4
1.069, -6.533e-4
1.070, -6.545e-4
1.071, -6.551e-4
1.072, -6.558e-4
1.073, -6.568e-4
1.074, -6.577e-4
1.075, -6.590e-4
1.076, -6.606e-4
1.077, -6.614e-4
1.078, -6.624e-4
1.079, -6.642e-4
1.080, -6.652e-4
1.081, -6.669e-4
1.082, -6.684e-4
1.083, -6.696e-4
1.084, -6.711e-4
1.085, -6.724e-4
1.086, -6.742e-4
1.087, -6.758e-4
1.088, -6.776e-4
1.089, -6.794e-4
1.090, -6.810e-4
1.091, -6.827e-4
1.092, -6.846e-4
1.093, -6.867e-4
1.094, -6.892e-4
1.095, -6.920e-4
1.096, -6.943e-4
1.097, -6.978e-4
1.098, -7.007e-4
1.099, -7.037e-4
1.100, -6.647e-4
1.099, -5.478e-4
1.098, -4.470e-4
1.097, -3.608e-4
1.096, -2.874e-4
1.095, -2.217e-4
1.094, -1.641e-4
1.093, -1.137e-4
1.092, -6.923e-5
1.091, -2.921e-5
1.090, 7.202e-6
1.089, 3.997e-5
1.088, 6.957e-5
1.087, 9.787e-5
1.086, 1.230e-4
1.085, 1.456e-4
1.084, 1.659e-4
1.083, 1.843e-4
1.082, 2.015e-4
1.081, 2.174e-4
1.080, 2.313e-4
1.079, 2.444e-4
1.078, 2.558e-4
1.077, 2.664e-4
1.076, 2.766e-4
1.075, 2.860e-4
1.074, 2.949e-4
1.073, 3.029e-4
1.072, 3.107e-4
1.071, 3.172e-4
1.070, 3.231e-4
1.069, 3.292e-4
1.068, 3.348e-4
1.067, 3.395e-4
1.066, 3.442e-4
1.065, 3.485e-4
1.064, 3.527e-4
1.063, 3.562e-4
1.062, 3.593e-4
1.061, 3.629e-4
1.060, 3.657e-4
1.059, 3.681e-4
1.058, 3.708e-4
1.057, 3.729e-4
1.056, 3.756e-4
1.055, 3.780e-4
1.054, 3.801e-4
1.053, 3.823e-4
1.052, 3.844e-4
1.051, 3.864e-4
1.050, 3.884e-4
1.049, 3.902e-4
1.048, 3.919e-4
1.047, 3.931e-4
1.046, 3.943e-4
1.045, 3.957e-4
1.044, 3.971e-4
1.043, 3.983e-4
1.042, 3.992e-4
1.041, 4.004e-4
1.040, 4.017e-4
1.039, 4.026e-4
1.038, 4.037e-4
1.037, 4.049e-4
1.036, 4.059e-4
1.035, 4.068e-4
1.034, 4.077e-4
1.033, 4.082e-4
1.032, 4.091e-4
1.031, 4.100e-4
1.030, 4.111e-4
1.029, 4.120e-4
1.028, 4.130e-4
1.027, 4.136e-4
1.026, 4.143e-4
1.025, 4.152e-4
1.024, 4.158e-4
1.023, 4.162e-4
1.022, 4.163e-4
1.021, 4.169e-4
1.020, 4.175e-4
1.019, 4.177e-4
1.018, 4.183e-4
1.017, 4.188e-4
1.016, 4.194e-4
1.015, 4.202e-4
1.014, 4.207e-4
1.013, 4.213e-4
1.012, 4.222e-4
1.011, 4.222e-4
1.010, 4.229e-4
1.009, 4.231e-4
1.008, 4.238e-4
1.007, 4.244e-4
1.006, 4.247e-4
1.005, 4.253e-4
1.004, 4.259e-4
1.003, 4.264e-4
1.002, 4.267e-4
1.001, 4.271e-4
1.000, 4.277e-4
0.999, 4.279e-4
0.998, 4.284e-4
0.997, 4.288e-4
0.996, 4.295e-4
0.995, 4.294e-4
0.994, 4.298e-4
0.993, 4.300e-4
0.992, 4.306e-4
0.991, 4.310e-4
0.990, 4.317e-4
0.989, 4.317e-4
0.988, 4.320e-4
0.987, 4.325e-4
0.986, 4.328e-4
0.985, 4.330e-4
0.984, 4.332e-4
0.983, 4.336e-4
0.982, 4.336e-4
0.981, 4.343e-4
0.980, 4.339e-4
0.979, 4.342e-4
0.978, 4.345e-4
0.977, 4.347e-4
0.976, 4.350e-4
0.975, 4.354e-4
0.974, 4.349e-4
0.973, 4.355e-4
0.972, 4.360e-4
0.971, 4.359e-4
0.970, 4.361e-4
0.969, 4.361e-4
0.968, 4.361e-4
0.967, 4.363e-4
0.966, 4.364e-4
0.965, 4.366e-4
0.964, 4.367e-4
0.963, 4.365e-4
0.962, 4.369e-4
0.961, 4.367e-4
0.960, 4.363e-4
0.959, 4.364e-4
0.958, 4.365e-4
0.957, 4.365e-4
0.956, 4.365e-4
0.955, 4.363e-4
0.954, 4.364e-4
0.953, 4.365e-4
0.952, 4.360e-4
0.951, 4.362e-4
0.950, 4.359e-4
0.949, 4.359e-4
0.948, 4.358e-4
0.947, 4.357e-4
0.946, 4.356e-4
0.945, 4.354e-4
0.944, 4.354e-4
0.943, 4.351e-4
0.942, 4.349e-4
0.941, 4.348e-4
0.940, 4.347e-4
0.939, 4.342e-4
0.938, 4.342e-4
0.937, 4.341e-4
0.936, 4.337e-4
0.935, 4.333e-4
0.934, 4.333e-4
0.933, 4.329e-4
0.932, 4.329e-4
0.931, 4.322e-4
0.930, 4.319e-4
0.929, 4.317e-4
0.928, 4.319e-4
0.927, 4.315e-4
0.926, 4.311e-4
0.925, 4.305e-4
0.924, 4.301e-4
0.923, 4.296e-4
0.922, 4.296e-4
0.921, 4.296e-4
0.920, 4.291e-4
0.919, 4.288e-4
0.918, 4.279e-4
0.917, 4.272e-4
0.916, 4.268e-4
0.915, 4.266e-4
0.914, 4.261e-4
0.913, 4.258e-4
0.912, 4.252e-4
0.911, 4.250e-4
0.910, 4.242e-4
0.909, 4.238e-4
0.908, 4.235e-4
0.907, 4.227e-4
0.906, 4.226e-4
0.905, 4.221e-4
0.904, 4.215e-4
0.903, 4.215e-4
0.902, 4.209e-4
0.901, 4.208e-4
0.900, 4.198e-4
0.899, 4.188e-4
0.898, 4.185e-4
0.897, 4.180e-4
0.896, 4.176e-4
0.895, 4.172e-4
0.894, 4.166e-4
0.893, 4.162e-4
0.892, 4.157e-4
0.891, 4.152e-4
0.890, 4.148e-4
0.889, 4.144e-4
0.888, 4.136e-4
0.887, 4.134e-4
0.886, 4.126e-4
0.885, 4.117e-4
0.884, 4.112e-4
0.883, 4.105e-4
0.882, 4.104e-4
0.881, 4.095e-4
0.880, 4.090e-4
0.879, 4.086e-4
0.878, 4.079e-4
0.877, 4.076e-4
0.876, 4.073e-4
0.875, 4.065e-4
0.874, 4.059e-4
0.873, 4.053e-4
0.872, 4.048e-4
0.871, 4.047e-4
0.870, 4.040e-4
0.869, 4.038e-4
0.868, 4.033e-4
0.867, 4.027e-4
0.866, 4.023e-4
0.865, 4.016e-4
0.864, 4.012e-4
0.863, 4.011e-4
0.862, 4.002e-4
0.861, 4.002e-4
0.860, 3.998e-4
0.859, 3.986e-4
0.858, 3.981e-4
0.857, 3.977e-4
0.856, 3.968e-4
0.855, 3.966e-4
0.854, 3.960e-4
0.853, 3.952e-4
0.852, 3.951e-4
0.851, 3.944e-4
0.850, 3.943e-4
0.849, 3.932e-4
0.848, 3.927e-4
0.847, 3.925e-4
0.846, 3.920e-4
0.845, 3.916e-4
0.844, 3.915e-4
0.843, 3.905e-4
0.842, 3.902e-4
0.841, 3.897e-4
0.840, 3.893e-4
0.839, 3.890e-4
0.838, 3.887e-4
0.837, 3.885e-4
0.836, 3.884e-4
0.835, 3.879e-4
0.834, 3.879e-4
0.833, 3.877e-4
0.832, 3.869e-4
0.831, 3.867e-4
0.830, 3.862e-4
0.829, 3.860e-4
0.828, 3.855e-4
0.827, 3.850e-4
0.826, 3.848e-4
0.825, 3.845e-4
0.824, 3.841e-4
0.823, 3.839e-4
0.822, 3.836e-4
0.821, 3.834e-4
0.820, 3.832e-4
0.819, 3.838e-4
0.818, 3.838e-4
0.817, 3.833e-4
0.816, 3.826e-4
0.815, 3.821e-4
0.814, 3.818e-4
0.813, 3.818e-4
0.812, 3.818e-4
0.811, 3.809e-4
0.810, 3.805e-4
0.809, 3.801e-4
0.808, 3.797e-4
0.807, 3.796e-4
0.806, 3.793e-4
0.805, 3.791e-4
0.804, 3.787e-4
0.803, 3.783e-4
0.802, 3.782e-4
0.801, 3.778e-4
0.800, 3.780e-4
0.799, 3.778e-4
0.798, 3.774e-4
0.797, 3.772e-4
0.796, 3.770e-4
0.795, 3.769e-4
0.794, 3.769e-4
0.793, 3.769e-4
0.792, 3.765e-4
0.791, 3.762e-4
0.790, 3.763e-4
0.789, 3.761e-4
0.788, 3.759e-4
0.787, 3.759e-4
0.786, 3.762e-4
0.785, 3.758e-4
0.784, 3.753e-4
0.783, 3.754e-4
0.782, 3.752e-4
0.781, 3.750e-4
0.780, 3.751e-4
0.779, 3.747e-4
0.778, 3.749e-4
0.777, 3.750e-4
0.776, 3.747e-4
0.775, 3.748e-4
0.774, 3.747e-4
0.773, 3.747e-4
0.772, 3.748e-4
0.771, 3.746e-4
0.770, 3.748e-4
0.769, 3.746e-4
0.768, 3.750e-4
0.767, 3.751e-4
0.766, 3.751e-4
0.765, 3.750e-4
0.764, 3.749e-4
0.763, 3.749e-4
0.762, 3.753e-4
0.761, 3.754e-4
0.760, 3.752e-4
0.759, 3.754e-4
0.758, 3.754e-4
0.757, 3.752e-4
0.756, 3.755e-4
0.755, 3.755e-4
0.754, 3.756e-4
0.753, 3.757e-4
0.752, 3.756e-4
0.751, 3.759e-4
0.750, 3.757e-4
0.749, 3.759e-4
0.748, 3.763e-4
0.747, 3.760e-4
0.746, 3.763e-4
0.745, 3.762e-4
0.744, 3.764e-4
0.743, 3.766e-4
0.742, 3.767e-4
0.741, 3.767e-4
0.740, 3.770e-4
0.739, 3.766e-4
0.738, 3.768e-4
0.737, 3.770e-4
0.736, 3.773e-4
0.735, 3.774e-4
0.734, 3.775e-4
0.733, 3.775e-4
0.732, 3.775e-4
0.731, 3.777e-4
0.730, 3.782e-4
0.729, 3.781e-4
0.728, 3.783e-4
0.727, 3.786e-4
0.726, 3.786e-4
0.725, 3.789e-4
0.724, 3.792e-4
0.723, 3.793e-4
0.722, 3.797e-4
0.721, 3.795e-4
0.720, 3.799e-4
0.719, 3.803e-4
0.718, 3.803e-4
0.717, 3.810e-4
0.716, 3.815e-4
0.715, 3.815e-4
0.714, 3.819e-4
0.713, 3.821e-4
0.712, 3.824e-4
0.711, 3.825e-4
0.710, 3.827e-4
0.709, 3.830e-4
0.708, 3.834e-4
0.707, 3.837e-4
0.706, 3.838e-4
0.705, 3.840e-4
0.704, 3.840e-4
0.703, 3.842e-4
0.702, 3.840e-4
0.701, 3.843e-4
0.700, 3.848e-4
0.699, 3.848e-4
0.698, 3.852e-4
0.697, 3.857e-4
0.696, 3.859e-4
0.695, 3.865e-4
0.694, 3.867e-4
0.693, 3.866e-4
0.692, 3.871e-4
0.691, 3.876e-4
0.690, 3.879e-4
0.689, 3.881e-4
0.688, 3.883e-4
0.687, 3.887e-4
0.686, 3.889e-4
0.685, 3.892e-4
0.684, 3.895e-4
0.683, 3.898e-4
0.682, 3.904e-4
0.681, 3.908e-4
0.680, 3.909e-4
0.679, 3.911e-4
0.678, 3.911e-4
0.677, 3.916e-4
0.676, 3.920e-4
0.675, 3.923e-4
0.674, 3.925e-4
0.673, 3.924e-4
0.672, 3.933e-4
0.671, 3.936e-4
0.670, 3.936e-4
0.669, 3.942e-4
0.668, 3.944e-4
0.667, 3.944e-4
0.666, 3.950e-4
0.665, 3.956e-4
0.664, 3.958e-4
0.663, 3.962e-4
0.662, 3.963e-4
0.661, 3.969e-4
0.660, 3.970e-4
0.659, 3.971e-4
0.658, 3.976e-4
0.657, 3.978e-4
0.656, 3.984e-4
0.655, 3.985e-4
0.654, 3.987e-4
0.653, 3.992e-4
0.652, 3.996e-4
0.651, 3.997e-4
0.650, 4.000e-4
0.649, 4.005e-4
0.648, 4.007e-4
0.647, 4.015e-4
0.646, 4.018e-4
0.645, 4.021e-4
0.644, 4.024e-4
0.643, 4.028e-4
0.642, 4.033e-4
0.641, 4.033e-4
0.640, 4.041e-4
0.639, 4.045e-4
0.638, 4.042e-4
0.637, 4.045e-4
0.636, 4.050e-4
0.635, 4.052e-4
0.634, 4.057e-4
0.633, 4.060e-4
0.632, 4.065e-4
0.631, 4.069e-4
0.630, 4.068e-4
0.629, 4.072e-4
0.628, 4.079e-4
0.627, 4.078e-4
0.626, 4.084e-4
0.625, 4.088e-4
0.624, 4.089e-4
0.623, 4.092e-4
0.622, 4.097e-4
0.621, 4.101e-4
0.620, 4.107e-4
0.619, 4.109e-4
0.618, 4.113e-4
0.617, 4.117e-4
0.616, 4.120e-4
0.615, 4.122e-4
0.614, 4.130e-4
0.613, 4.134e-4
0.612, 4.140e-4
0.611, 4.140e-4
0.610, 4.142e-4
0.609, 4.147e-4
0.608, 4.156e-4
0.607, 4.162e-4
0.606, 4.163e-4
0.605, 4.168e-4
0.604, 4.171e-4
0.603, 4.174e-4
0.602, 4.178e-4
0.601, 4.183e-4
0.600, 4.185e-4
0.599, 4.190e-4
0.598, 4.190e-4
0.597, 4.194e-4
0.596, 4.200e-4
0.595, 4.205e-4
0.594, 4.210e-4
0.593, 4.215e-4
0.592, 4.217e-4
0.591, 4.222e-4
0.590, 4.225e-4
0.589, 4.229e-4
0.588, 4.235e-4
0.587, 4.235e-4
0.586, 4.240e-4
0.585, 4.245e-4
0.584, 4.249e-4
0.583, 4.258e-4
0.582, 4.259e-4
0.581, 4.267e-4
0.580, 4.266e-4
0.579, 4.271e-4
0.578, 4.277e-4
0.577, 4.279e-4
0.576, 4.283e-4
0.575, 4.288e-4
0.574, 4.294e-4
0.573, 4.300e-4
0.572, 4.303e-4
0.571, 4.308e-4
0.570, 4.313e-4
0.569, 4.317e-4
0.568, 4.324e-4
0.567, 4.326e-4
0.566, 4.327e-4
0.565, 4.334e-4
0.564, 4.340e-4
0.563, 4.344e-4
0.562, 4.349e-4
0.561, 4.352e-4
0.560, 4.357e-4
0.559, 4.362e-4
0.558, 4.366e-4
0.557, 4.371e-4
0.556, 4.377e-4
0.555, 4.380e-4
0.554, 4.381e-4
0.553, 4.390e-4
0.552, 4.389e-4
0.551, 4.394e-4
0.550, 4.398e-4
0.549, 4.401e-4
0.548, 4.406e-4
0.547, 4.407e-4
0.546, 4.413e-4
0.545, 4.419e-4
0.544, 4.423e-4
0.543, 4.431e-4
0.542, 4.433e-4
0.541, 4.435e-4
0.540, 4.438e-4
0.539, 4.441e-4
0.538, 4.448e-4
0.537, 4.451e-4
0.536, 4.455e-4
0.535, 4.463e-4
0.534, 4.461e-4
0.533, 4.467e-4
0.532, 4.471e-4
0.531, 4.476e-4
0.530, 4.480e-4
0.529, 4.485e-4
0.528, 4.484e-4
0.527, 4.491e-4
0.526, 4.492e-4
0.525, 4.498e-4
0.524, 4.500e-4
0.523, 4.503e-4
0.522, 4.509e-4
0.521, 4.510e-4
0.520, 4.514e-4
0.519, 4.520e-4
0.518, 4.521e-4
0.517, 4.527e-4
0.516, 4.530e-4
0.515, 4.529e-4
0.514, 4.537e-4
0.513, 4.539e-4
0.512, 4.549e-4
0.511, 4.555e-4
0.510, 4.556e-4
0.509, 4.563e-4
0.508, 4.561e-4
0.507, 4.565e-4
0.506, 4.569e-4
0.505, 4.575e-4
0.504, 4.573e-4
0.503, 4.577e-4
0.502, 4.579e-4
0.501, 4.582e-4
0.500, 4.585e-4
0.499, 4.586e-4
0.498, 4.590e-4
0.497, 4.593e-4
0.496, 4.596e-4
0.495, 4.600e-4
0.494, 4.605e-4
0.493, 4.608e-4
0.492, 4.612e-4
0.491, 4.613e-4
0.490, 4.615e-4
0.489, 4.615e-4
0.488, 4.618e-4
0.487, 4.622e-4
0.486, 4.625e-4
0.485, 4.631e-4
0.484, 4.632e-4
0.483, 4.631e-4
0.482, 4.636e-4
0.481, 4.642e-4
0.480, 4.647e-4
0.479, 4.652e-4
0.478, 4.651e-4
0.477, 4.655e-4
0.476, 4.659e-4
0.475, 4.658e-4
0.474, 4.662e-4
0.473, 4.663e-4
0.472, 4.666e-4
0.471, 4.670e-4
0.470, 4.669e-4
0.469, 4.672e-4
0.468, 4.674e-4
0.467, 4.676e-4
0.466, 4.681e-4
0.465, 4.681e-4
0.464, 4.682e-4
0.463, 4.685e-4
0.462, 4.685e-4
0.461, 4.693e-4
0.460, 4.695e-4
0.459, 4.696e-4
0.458, 4.701e-4
0.457, 4.705e-4
0.456, 4.708e-4
0.455, 4.711e-4
0.454, 4.714e-4
0.453, 4.717e-4
0.452, 4.722e-4
0.451, 4.719e-4
0.450, 4.723e-4
0.449, 4.723e-4
0.448, 4.726e-4
0.447, 4.728e-4
0.446, 4.734e-4
0.445, 4.740e-4
0.444, 4.739e-4
0.443, 4.741e-4
0.442, 4.744e-4
0.441, 4.749e-4
0.440, 4.755e-4
0.439, 4.756e-4
0.438, 4.757e-4
0.437, 4.764e-4
0.436, 4.766e-4
0.435, 4.771e-4
0.434, 4.774e-4
0.433, 4.777e-4
0.432, 4.776e-4
0.431, 4.785e-4
0.430, 4.785e-4
0.429, 4.790e-4
0.428, 4.797e-4
0.427, 4.801e-4
0.426, 4.805e-4
0.425, 4.806e-4
0.424, 4.812e-4
0.423, 4.814e-4
0.422, 4.817e-4
0.421, 4.818e-4
0.420, 4.825e-4
0.419, 4.826e-4
0.418, 4.827e-4
0.417, 4.832e-4
0.416, 4.837e-4
0.415, 4.840e-4
0.414, 4.843e-4
0.413, 4.847e-4
0.412, 4.851e-4
0.411, 4.855e-4
0.410, 4.859e-4
0.409, 4.865e-4
0.408, 4.867e-4
0.407, 4.872e-4
0.406, 4.877e-4
0.405, 4.877e-4
0.404, 4.883e-4
0.403, 4.887e-4
0.402, 4.892e-4
0.401, 4.900e-4
0.400, 4.896e-4
0.399, 4.906e-4
0.398, 4.907e-4
0.397, 4.911e-4
0.396, 4.917e-4
0.395, 4.922e-4
0.394, 4.924e-4
0.393, 4.927e-4
0.392, 4.928e-4
0.391, 4.934e-4
0.390, 4.937e-4
0.389, 4.943e-4
0.388, 4.950e-4
0.387, 4.951e-4
0.386, 4.958e-4
0.385, 4.958e-4
0.384, 4.963e-4
0.383, 4.967e-4
0.382, 4.968e-4
0.381, 4.973e-4
0.380, 4.977e-4
0.379, 4.981e-4
0.378, 4.986e-4
0.377, 4.991e-4
0.376, 4.991e-4
0.375, 4.998e-4
0.374, 4.998e-4
0.373, 5.000e-4
0.372, 5.006e-4
0.371, 5.010e-4
0.370, 5.014e-4
0.369, 5.015e-4
0.368, 5.017e-4
0.367, 5.023e-4
0.366, 5.024e-4
0.365, 5.026e-4
0.364, 5.030e-4
0.363, 5.035e-4
0.362, 5.041e-4
0.361, 5.040e-4
0.360, 5.044e-4
0.359, 5.050e-4
0.358, 5.052e-4
0.357, 5.054e-4
0.356, 5.059e-4
0.355, 5.060e-4
0.354, 5.062e-4
0.353, 5.065e-4
0.352, 5.069e-4
0.351, 5.073e-4
0.350, 5.071e-4
0.349, 5.074e-4
0.348, 5.075e-4
0.347, 5.079e-4
0.346, 5.084e-4
0.345, 5.086e-4
0.344, 5.085e-4
0.343, 5.091e-4
0.342, 5.088e-4
0.341, 5.090e-4
0.340, 5.092e-4
0.339, 5.092e-4
0.338, 5.094e-4
0.337, 5.097e-4
0.336, 5.095e-4
0.335, 5.095e-4
0.334, 5.094e-4
0.333, 5.096e-4
0.332, 5.100e-4
0.331, 5.096e-4
0.330, 5.096e-4
0.329, 5.100e-4
0.328, 5.095e-4
0.327, 5.096e-4
0.326, 5.093e-4
0.325, 5.093e-4
0.324, 5.094e-4
0.323, 5.090e-4
0.322, 5.090e-4
0.321, 5.091e-4
0.320, 5.090e-4
0.319, 5.088e-4
0.318, 5.087e-4
0.317, 5.086e-4
0.316, 5.084e-4
0.315, 5.081e-4
0.314, 5.082e-4
0.313, 5.081e-4
0.312, 5.079e-4
0.311, 5.075e-4
0.310, 5.076e-4
0.309, 5.071e-4
0.308, 5.072e-4
0.307, 5.073e-4
0.306, 5.071e-4
0.305, 5.070e-4
0.304, 5.065e-4
0.303, 5.061e-4
0.302, 5.057e-4
0.301, 5.059e-4
0.300, 5.058e-4
0.299, 5.053e-4
0.298, 5.051e-4
0.297, 5.047e-4
0.296, 5.046e-4
0.295, 5.039e-4
0.294, 5.034e-4
0.293, 5.032e-4
0.292, 5.027e-4
0.291, 5.023e-4
0.290, 5.015e-4
0.289, 5.011e-4
0.288, 5.008e-4
0.287, 5.007e-4
0.286, 5.002e-4
0.285, 4.998e-4
0.284, 4.994e-4
0.283, 4.989e-4
0.282, 4.985e-4
0.281, 4.981e-4
0.280, 4.978e-4
0.279, 4.974e-4
0.278, 4.969e-4
0.277, 4.964e-4
0.276, 4.963e-4
0.275, 4.955e-4
0.274, 4.952e-4
0.273, 4.947e-4
0.272, 4.942e-4
0.271, 4.937e-4
0.270, 4.932e-4
0.269, 4.930e-4
0.268, 4.924e-4
0.267, 4.920e-4
0.266, 4.915e-4
0.265, 4.911e-4
0.264, 4.908e-4
0.263, 4.904e-4
0.262, 4.900e-4
0.261, 4.895e-4
0.260, 4.892e-4
0.259, 4.884e-4
0.258, 4.882e-4
0.257, 4.876e-4
0.256, 4.871e-4
0.255, 4.872e-4
0.254, 4.863e-4
0.253, 4.859e-4
0.252, 4.856e-4
0.251, 4.848e-4
0.250, 4.847e-4
0.249, 4.842e-4
0.248, 4.839e-4
0.247, 4.839e-4
0.246, 4.830e-4
0.245, 4.827e-4
0.244, 4.825e-4
0.243, 4.819e-4
0.242, 4.814e-4
0.241, 4.812e-4
0.240, 4.805e-4
0.239, 4.802e-4
0.238, 4.800e-4
0.237, 4.796e-4
0.236, 4.792e-4
0.235, 4.787e-4
0.234, 4.784e-4
0.233, 4.782e-4
0.232, 4.780e-4
0.231, 4.774e-4
0.230, 4.771e-4
0.229, 4.768e-4
0.228, 4.765e-4
0.227, 4.759e-4
0.226, 4.760e-4
0.225, 4.757e-4
0.224, 4.752e-4
0.223, 4.753e-4
0.222, 4.744e-4
0.221, 4.741e-4
0.220, 4.740e-4
0.219, 4.736e-4
0.218, 4.739e-4
0.217, 4.735e-4
0.216, 4.732e-4
0.215, 4.730e-4
0.214, 4.732e-4
0.213, 4.724e-4
0.212, 4.724e-4
0.211, 4.724e-4
0.210, 4.728e-4
0.209, 4.725e-4
0.208, 4.724e-4
0.207, 4.725e-4
0.206, 4.725e-4
0.205, 4.726e-4
0.204, 4.727e-4
0.203, 4.725e-4
0.202, 4.719e-4
0.201, 4.720e-4
0.200, 4.715e-4
0.199, 4.715e-4
0.198, 4.720e-4
0.197, 4.719e-4
0.196, 4.719e-4
0.195, 4.718e-4
0.194, 4.720e-4
0.193, 4.723e-4
0.192, 4.722e-4
0.191, 4.728e-4
0.190, 4.726e-4
0.189, 4.727e-4
0.188, 4.729e-4
0.187, 4.729e-4
0.186, 4.731e-4
0.185, 4.737e-4
0.184, 4.738e-4
0.183, 4.737e-4
0.182, 4.734e-4
0.181, 4.739e-4
0.180, 4.741e-4
0.179, 4.741e-4
0.178, 4.744e-4
0.177, 4.746e-4
0.176, 4.750e-4
0.175, 4.755e-4
0.174, 4.753e-4
0.173, 4.759e-4
0.172, 4.762e-4
0.171, 4.764e-4
0.170, 4.770e-4
0.169, 4.770e-4
0.168, 4.772e-4
0.167, 4.780e-4
0.166, 4.777e-4
0.165, 4.784e-4
0.164, 4.790e-4
0.163, 4.790e-4
0.162, 4.799e-4
0.161, 4.800e-4
0.160, 4.807e-4
0.159, 4.812e-4
0.158, 4.817e-4
0.157, 4.821e-4
0.156, 4.826e-4
0.155, 4.832e-4
0.154, 4.838e-4
0.153, 4.844e-4
0.152, 4.850e-4
0.151, 4.856e-4
0.150, 4.861e-4
0.149, 4.868e-4
0.148, 4.873e-4
0.147, 4.878e-4
0.146, 4.888e-4
0.145, 4.891e-4
0.144, 4.894e-4
0.143, 4.904e-4
0.142, 4.905e-4
0.141, 4.913e-4
0.140, 4.923e-4
0.139, 4.929e-4
0.138, 4.937e-4
0.137, 4.942e-4
0.136, 4.951e-4
0.135, 4.959e-4
0.134, 4.968e-4
0.133, 4.980e-4
0.132, 4.986e-4
0.131, 4.994e-4
0.130, 5.004e-4
0.129, 5.011e-4
0.128, 5.016e-4
0.127, 5.029e-4
0.126, 5.037e-4
0.125, 5.047e-4
0.124, 5.060e-4
0.123, 5.068e-4
0.122, 5.085e-4
0.121, 5.095e-4
0.120, 5.102e-4
0.119, 5.117e-4
0.118, 5.124e-4
0.117, 5.134e-4
0.116, 5.146e-4
0.115, 5.162e-4
0.114, 5.174e-4
0.113, 5.185e-4
0.112, 5.197e-4
0.111, 5.209e-4
0.110, 5.218e-4
0.109, 5.231e-4
0.108, 5.244e-4
0.107, 5.256e-4
0.106, 5.270e-4
0.105, 5.284e-4
0.104, 5.300e-4
0.103, 5.317e-4
0.102, 5.337e-4
0.101, 5.350e-4
0.100, 5.363e-4
0.099, 5.377e-4
0.098, 5.392e-4
0.097, 5.409e-4
0.096, 5.425e-4
0.095, 5.442e-4
0.094, 5.457e-4
0.093, 5.469e-4
0.092, 5.485e-4
0.091, 5.501e-4
0.090, 5.519e-4
0.089, 5.539e-4
0.088, 5.556e-4
0.087, 5.574e-4
0.086, 5.594e-4
0.085, 5.611e-4
0.084, 5.631e-4
0.083, 5.651e-4
0.082, 5.670e-4
0.081, 5.690e-4
0.080, 5.708e-4
0.079, 5.729e-4
0.078, 5.745e-4
0.077, 5.770e-4
0.076, 5.791e-4
0.075, 5.813e-4
0.074, 5.832e-4
0.073, 5.858e-4
0.072, 5.875e-4
0.071, 5.900e-4
0.070, 5.923e-4
0.069, 5.945e-4
0.068, 5.969e-4
0.067, 5.989e-4
0.066, 6.017e-4
0.065, 6.039e-4
0.064, 6.063e-4
0.063, 6.094e-4
0.062, 6.114e-4
0.061, 6.141e-4
0.060, 6.168e-4
0.059, 6.194e-4
0.058, 6.224e-4
0.057, 6.248e-4
0.056, 6.274e-4
0.055, 6.307e-4
0.054, 6.334e-4
0.053, 6.365e-4
0.052, 6.396e-4
0.051, 6.424e-4
0.050, 6.451e-4
0.049, 6.480e-4
0.048, 6.509e-4
0.047, 6.538e-4
0.046, 6.569e-4
0.045, 6.602e-4
0.044, 6.636e-4
0.043, 6.666e-4
0.042, 6.700e-4
0.041, 6.733e-4
0.040, 6.765e-4
0.039, 6.797e-4
0.038, 6.831e-4
0.037, 6.869e-4
0.036, 6.902e-4
0.035, 6.935e-4
0.034, 6.969e-4
0.033, 7.007e-4
0.032, 7.044e-4
0.031, 7.078e-4
0.030, 7.114e-4
0.029, 7.152e-4
0.028, 7.190e-4
0.027, 7.226e-4
0.026, 7.268e-4
0.025, 7.307e-4
0.024, 7.350e-4
0.023, 7.386e-4
0.022, 7.426e-4
0.021, 7.466e-4
0.020, 7.509e-4
0.019, 7.551e-4
0.018, 7.594e-4
0.017, 7.634e-4
0.016, 7.671e-4
0.015, 7.713e-4
0.014, 7.751e-4
0.013, 7.792e-4
0.012, 7.836e-4
0.011, 7.879e-4
0.010, 7.922e-4
0.009, 7.964e-4
0.008, 8.011e-4
0.007, 8.058e-4
0.006, 8.104e-4
0.005, 8.150e-4
0.004, 8.199e-4
0.003, 8.241e-4
0.002, 8.288e-4
0.001, 8.335e-4
0.000, 8.390e-4
-0.001, 8.437e-4
-0.002, 8.480e-4
-0.003, 8.529e-4
-0.004, 8.575e-4
-0.005, 8.619e-4
-0.006, 8.672e-4
-0.007, 8.725e-4
-0.008, 8.775e-4
-0.009, 8.825e-4
-0.010, 8.872e-4
-0.011, 8.919e-4
-0.012, 8.969e-4
-0.013, 9.018e-4
-0.014, 9.064e-4
-0.015, 9.116e-4
-0.016, 9.161e-4
-0.017, 9.213e-4
-0.018, 9.261e-4
-0.019, 9.312e-4
-0.020, 9.360e-4
-0.021, 9.408e-4
-0.022, 9.458e-4
-0.023, 9.508e-4
-0.024, 9.553e-4
-0.025, 9.604e-4
-0.026, 9.654e-4
-0.027, 9.704e-4
-0.028, 9.751e-4
-0.029, 9.803e-4
-0.030, 9.849e-4
-0.031, 9.897e-4
-0.032, 9.945e-4
-0.033, 9.995e-4
-0.034, 1.004e-3
-0.035, 1.009e-3
-0.036, 1.014e-3
-0.037, 1.019e-3
-0.038, 1.024e-3
-0.039, 1.028e-3
-0.040, 1.033e-3
-0.041, 1.038e-3
-0.042, 1.042e-3
-0.043, 1.047e-3
-0.044, 1.052e-3
-0.045, 1.057e-3
-0.046, 1.061e-3
-0.047, 1.066e-3
-0.048, 1.070e-3
-0.049, 1.074e-3
-0.050, 1.079e-3
-0.051, 1.084e-3
-0.052, 1.088e-3
-0.053, 1.093e-3
-0.054, 1.097e-3
-0.055, 1.101e-3
-0.056, 1.105e-3
-0.057, 1.110e-3
-0.058, 1.114e-3
-0.059, 1.118e-3
-0.060, 1.123e-3
-0.061, 1.127e-3
-0.062, 1.131e-3
-0.063, 1.135e-3
-0.064, 1.139e-3
-0.065, 1.143e-3
-0.066, 1.147e-3
-0.067, 1.151e-3
-0.068, 1.155e-3
-0.069, 1.158e-3
-0.070, 1.163e-3
-0.071, 1.167e-3
-0.072, 1.171e-3
-0.073, 1.175e-3
-0.074, 1.178e-3
-0.075, 1.182e-3
-0.076, 1.186e-3
-0.077, 1.189e-3
-0.078, 1.193e-3
-0.079, 1.197e-3
-0.080, 1.200e-3
-0.081, 1.204e-3
-0.082, 1.207e-3
-0.083, 1.211e-3
-0.084, 1.214e-3
-0.085, 1.218e-3
-0.086, 1.221e-3
-0.087, 1.225e-3
-0.088, 1.228e-3
-0.089, 1.231e-3
-0.090, 1.234e-3
-0.091, 1.238e-3
-0.092, 1.241e-3
-0.093, 1.244e-3
-0.094, 1.247e-3
-0.095, 1.250e-3
-0.096, 1.253e-3
-0.097, 1.256e-3
-0.098, 1.258e-3
-0.099, 1.261e-3
-0.100, 1.236e-3
-0.099, 1.160e-3
-0.098, 1.095e-3
-0.097, 1.038e-3
-0.096, 9.862e-4
-0.095, 9.391e-4
-0.094, 8.953e-4
-0.093, 8.538e-4
-0.092, 8.150e-4
-0.091, 7.788e-4
-0.090, 7.442e-4
-0.089, 7.116e-4
-0.088, 6.802e-4
-0.087, 6.504e-4
-0.086, 6.216e-4
-0.085, 5.939e-4
-0.084, 5.671e-4
-0.083, 5.412e-4
-0.082, 5.160e-4
-0.081, 4.916e-4
-0.080, 4.684e-4
-0.079, 4.460e-4
-0.078, 4.240e-4
-0.077, 4.028e-4
-0.076, 3.822e-4
-0.075, 3.620e-4
-0.074, 3.425e-4
-0.073, 3.239e-4
-0.072, 3.056e-4
-0.071, 2.873e-4
-0.070, 2.700e-4
-0.069, 2.529e-4
-0.068, 2.363e-4
-0.067, 2.203e-4
-0.066, 2.042e-4
-0.065, 1.889e-4
-0.064, 1.740e-4
-0.063, 1.593e-4
-0.062, 1.449e-4
-0.061, 1.305e-4
-0.060, 1.168e-4
-0.059, 1.031e-4
-0.058, 9.010e-5
-0.057, 7.617e-5
-0.056, 6.348e-5
-0.055, 5.149e-5
-0.054, 3.974e-5
-0.053, 2.791e-5
-0.052, 1.632e-5
-0.051, 5.151e-6
-0.050, -6.151e-6
-0.049, -1.688e-5
-0.048, -2.729e-5
-0.047, -3.743e-5
-0.046, -4.759e-5
-0.045, -5.725e-5
-0.044, -6.700e-5
-0.043, -7.625e-5
-0.042, -8.555e-5
-0.041, -9.432e-5
-0.040, -1.034e-4
-0.039, -1.122e-4
-0.038, -1.206e-4
-0.037, -1.289e-4
-0.036, -1.373e-4
-0.035, -1.453e-4
-0.034, -1.533e-4
-0.033, -1.614e-4
-0.032, -1.690e-4
-0.031, -1.766e-4
-0.030, -1.839e-4
-0.029, -1.908e-4
-0.028, -1.978e-4
-0.027, -2.044e-4
-0.026, -2.113e-4
-0.025, -2.180e-4
-0.024, -2.245e-4
-0.023, -2.310e-4
-0.022, -2.372e-4
-0.021, -2.433e-4
-0.020, -2.497e-4
-0.019, -2.556e-4
-0.018, -2.613e-4
-0.017, -2.672e-4
-0.016, -2.724e-4
-0.015, -2.779e-4
-0.014, -2.834e-4
-0.013, -2.886e-4
-0.012, -2.938e-4
-0.011, -2.987e-4
-0.010, -3.037e-4
-0.009, -3.088e-4
-0.008, -3.133e-4
-0.007, -3.172e-4
-0.006, -3.215e-4
-0.005, -3.256e-4
-0.004, -3.300e-4
-0.003, -3.345e-4
-0.002, -3.386e-4
-0.001, -3.426e-4
-0.000, -3.473e-4
0.001, -3.515e-4
0.002, -3.552e-4
0.003, -3.591e-4
0.004, -3.630e-4
0.005, -3.665e-4
0.006, -3.701e-4
0.007, -3.734e-4
0.008, -3.767e-4
0.009, -3.801e-4
0.010, -3.836e-4
0.011, -3.865e-4
0.012, -3.902e-4
0.013, -3.930e-4
0.014, -3.964e-4
0.015, -3.994e-4
0.016, -4.021e-4
0.017, -4.053e-4
0.018, -4.081e-4
0.019, -4.108e-4
0.020, -4.138e-4
0.021, -4.163e-4
0.022, -4.192e-4
0.023, -4.218e-4
0.024, -4.243e-4
0.025, -4.267e-4
0.026, -4.292e-4
0.027, -4.310e-4
0.028, -4.337e-4
0.029, -4.359e-4
0.030, -4.378e-4
0.031, -4.406e-4
0.032, -4.425e-4
0.033, -4.446e-4
0.034, -4.465e-4
0.035, -4.484e-4
0.036, -4.505e-4
0.037, -4.522e-4
0.038, -4.542e-4
0.039, -4.558e-4
0.040, -4.578e-4
0.041, -4.595e-4
0.042, -4.612e-4
0.043, -4.630e-4
0.044, -4.646e-4
0.045, -4.662e-4
0.046, -4.679e-4
0.047, -4.695e-4
0.048, -4.706e-4
0.049, -4.720e-4
0.050, -4.737e-4
0.051, -4.751e-4
0.052, -4.765e-4
0.053, -4.777e-4
0.054, -4.786e-4
0.055, -4.799e-4
0.056, -4.812e-4
0.057, -4.827e-4
0.058, -4.838e-4
0.059, -4.845e-4
0.060, -4.858e-4
0.061, -4.868e-4
0.062, -4.877e-4
0.063, -4.887e-4
0.064, -4.896e-4
0.065, -4.904e-4
0.066, -4.912e-4
0.067, -4.924e-4
0.068, -4.930e-4
0.069, -4.935e-4
0.070, -4.945e-4
0.071, -4.955e-4
0.072, -4.957e-4
0.073, -4.968e-4
0.074, -4.973e-4
0.075, -4.980e-4
0.076, -4.989e-4
0.077, -4.993e-4
0.078, -4.999e-4
0.079, -5.007e-4
0.080, -5.008e-4
0.081, -5.017e-4
0.082, -5.021e-4
0.083, -5.025e-4
0.084, -5.031e-4
0.085, -5.035e-4
0.086, -5.037e-4
0.087, -5.040e-4
0.088, -5.046e-4
0.089, -5.052e-4
0.090, -5.054e-4
0.091, -5.056e-4
0.092, -5.062e-4
0.093, -5.063e-4
0.094, -5.063e-4
0.095, -5.068e-4
0.096, -5.072e-4
0.097, -5.073e-4
0.098, -5.075e-4
0.099, -5.080e-4
0.100, -5.082e-4
0.101, -5.082e-4
0.102, -5.087e-4
0.103, -5.092e-4
0.104, -5.090e-4
0.105, -5.090e-4
0.106, -5.093e-4
0.107, -5.090e-4
0.108, -5.096e-4
0.109, -5.095e-4
0.110, -5.092e-4
0.111, -5.097e-4
0.112, -5.096e-4
0.113, -5.096e-4
0.114, -5.100e-4
0.115, -5.096e-4
0.116, -5.098e-4
0.117, -5.098e-4
0.118, -5.096e-4
0.119, -5.096e-4
0.120, -5.095e-4
0.121, -5.098e-4
0.122, -5.100e-4
0.123, -5.095e-4
0.124, -5.094e-4
0.125, -5.096e-4
0.126, -5.094e-4
0.127, -5.095e-4
0.128, -5.094e-4
0.129, -5.095e-4
0.130, -5.093e-4
0.131, -5.094e-4
0.132, -5.092e-4
0.133, -5.092e-4
0.134, -5.091e-4
0.135, -5.092e-4
0.136, -5.089e-4
0.137, -5.089e-4
0.138, -5.089e-4
0.139, -5.087e-4
0.140, -5.088e-4
0.141, -5.087e-4
0.142, -5.084e-4
0.143, -5.085e-4
0.144, -5.082e-4
0.145, -5.084e-4
0.146, -5.084e-4
0.147, -5.081e-4
0.148, -5.081e-4
0.149, -5.078e-4
0.150, -5.079e-4
0.151, -5.074e-4
0.152, -5.075e-4
0.153, -5.076e-4
0.154, -5.076e-4
0.155, -5.075e-4
0.156, -5.072e-4
0.157, -5.072e-4
0.158, -5.069e-4
0.159, -5.070e-4
0.160, -5.069e-4
0.161, -5.068e-4
0.162, -5.065e-4
0.163, -5.064e-4
0.164, -5.067e-4
0.165, -5.066e-4
0.166, -5.065e-4
0.167, -5.065e-4
0.168, -5.062e-4
0.169, -5.058e-4
0.170, -5.060e-4
0.171, -5.063e-4
0.172, -5.061e-4
0.173, -5.063e-4
0.174, -5.062e-4
0.175, -5.064e-4
0.176, -5.060e-4
0.177, -5.063e-4
0.178, -5.059e-4
0.179, -5.061e-4
0.180, -5.062e-4
0.181, -5.058e-4
0.182, -5.058e-4
0.183, -5.058e-4
0.184, -5.059e-4
0.185, -5.060e-4
0.186, -5.060e-4
0.187, -5.060e-4
0.188, -5.062e-4
0.189, -5.058e-4
0.190, -5.063e-4
0.191, -5.060e-4
0.192, -5.059e-4
0.193, -5.061e-4
0.194, -5.060e-4
0.195, -5.060e-4
0.196, -5.067e-4
0.197, -5.067e-4
0.198, -5.070e-4
0.199, -5.071e-4
0.200, -5.071e-4
0.201, -5.073e-4
0.202, -5.078e-4
0.203, -5.080e-4
0.204, -5.078e-4
0.205, -5.082e-4
0.206, -5.082e-4
0.207, -5.086e-4
0.208, -5.085e-4
0.209, -5.089e-4
0.210, -5.090e-4
0.211, -5.093e-4
0.212, -5.096e-4
0.213, -5.096e-4
0.214, -5.099e-4
0.215, -5.100e-4
0.216, -5.104e-4
0.217, -5.106e-4
0.218, -5.109e-4
0.219, -5.112e-4
0.220, -5.114e-4
0.221, -5.116e-4
0.222, -5.120e-4
0.223, -5.121e-4
0.224, -5.126e-4
0.225, -5.129e-4
0.226, -5.132e-4
0.227, -5.132e-4
0.228, -5.136e-4
0.229, -5.139e-4
0.230, -5.143e-4
0.231, -5.147e-4
0.232, -5.149e-4
0.233, -5.156e-4
0.234, -5.158e-4
0.235, -5.163e-4
0.236, -5.169e-4
0.237, -5.171e-4
0.238, -5.176e-4
0.239, -5.180e-4
0.240, -5.183e-4
0.241, -5.188e-4
0.242, -5.191e-4
0.243, -5.197e-4
0.244, -5.204e-4
0.245, -5.209e-4
0.246, -5.214e-4
0.247, -5.219e-4
0.248, -5.225e-4
0.249, -5.233e-4
0.250, -5.241e-4
0.251, -5.245e-4
0.252, -5.252e-4
0.253, -5.255e-4
0.254, -5.262e-4
0.255, -5.271e-4
0.256, -5.278e-4
0.257, -5.285e-4
0.258, -5.289e-4
0.259, -5.298e-4
0.260, -5.306e-4
0.261, -5.313e-4
0.262, -5.319e-4
0.263, -5.329e-4
0.264, -5.333e-4
0.265, -5.342e-4
0.266, -5.346e-4
0.267, -5.354e-4
0.268, -5.366e-4
0.269, -5.369e-4
0.270, -5.377e-4
0.271, -5.384e-4
0.272, -5.392e-4
0.273, -5.400e-4
0.274, -5.407e-4
0.275, -5.413e-4
0.276, -5.422e-4
0.277, -5.427e-4
0.278, -5.434e-4
0.279, -5.444e-4
0.280, -5.448e-4
0.281, -5.461e-4
0.282, -5.469e-4
0.283, -5.480e-4
0.284, -5.484e-4
0.285, -5.495e-4
0.286, -5.502e-4
0.287, -5.512e-4
0.288, -5.523e-4
0.289, -5.529e-4
0.290, -5.537e-4
0.291, -5.547e-4
0.292, -5.556e-4
0.293, -5.563e-4
0.294, -5.574e-4
0.295, -5.584e-4
0.296, -5.592e-4
0.297, -5.600e-4
0.298, -5.606e-4
0.299, -5.615e-4
0.300, -5.628e-4
0.301, -5.637e-4
0.302, -5.646e-4
0.303, -5.654e-4
0.304, -5.663e-4
0.305, -5.672e-4
0.306, -5.681e-4
0.307, -5.694e-4
0.308, -5.705e-4
0.309, -5.710e-4
0.310, -5.719e-4
0.311, -5.728e-4
0.312, -5.736e-4
0.313, -5.751e-4
0.314, -5.760e-4
0.315, -5.767e-4
0.316, -5.778e-4
0.317, -5.785e-4
0.318, -5.794e-4
0.319, -5.804e-4
0.320, -5.812e-4
0.321, -5.823e-4
0.322, -5.833e-4
0.323, -5.841e-4
0.324, -5.853e-4
0.325, -5.859e-4
0.326, -5.873e-4
0.327, -5.883e-4
0.328, -5.891e-4
0.329, -5.900e-4
0.330, -5.909e-4
0.331, -5.915e-4
0.332, -5.925e-4
0.333, -5.936e-4
0.334, -5.943e-4
0.335, -5.951e-4
0.336, -5.958e-4
0.337, -5.969e-4
0.338, -5.975e-4
0.339, -5.983e-4
0.340, -5.994e-4
0.341, -5.999e-4
0.342, -6.008e-4
0.343, -6.012e-4
0.344, -6.017e-4
0.345, -6.031e-4
0.346, -6.038e-4
0.347, -6.047e-4
0.348, -6.057e-4
0.349, -6.060e-4
0.350, -6.069e-4
0.351, -6.074e-4
0.352, -6.082e-4
0.353, -6.092e-4
0.354, -6.099e-4
0.355, -6.103e-4
0.356, -6.109e-4
0.357, -6.115e-4
0.358, -6.123e-4
0.359, -6.133e-4
0.360, -6.136e-4
0.361, -6.145e-4
0.362, -6.150e-4
0.363, -6.159e-4
0.364, -6.167e-4
0.365, -6.171e-4
0.366, -6.173e-4
0.367, -6.181e-4
0.368, -6.184e-4
0.369, -6.188e-4
0.370, -6.192e-4
0.371, -6.197e-4
0.372, -6.202e-4
0.373, -6.205e-4
0.374, -6.209e-4
0.375, -6.215e-4
0.376, -6.217e-4
0.377, -6.221e-4
0.378, -6.225e-4
0.379, -6.229e-4
0.380, -6.230e-4
0.381, -6.228e-4
0.382, -6.234e-4
0.383, -6.237e-4
0.384, -6.238e-4
0.385, -6.241e-4
0.386, -6.244e-4
0.387, -6.245e-4
0.388, -6.247e-4
0.389, -6.245e-4
0.390, -6.249e-4
0.391, -6.250e-4
0.392, -6.251e-4
0.393, -6.255e-4
0.394, -6.254e-4
0.395, -6.254e-4
0.396, -6.257e-4
0.397, -6.258e-4
0.398, -6.258e-4
0.399, -6.261e-4
0.400, -6.259e-4
0.401, -6.261e-4
0.402, -6.258e-4
0.403, -6.257e-4
0.404, -6.256e-4
0.405, -6.253e-4
0.406, -6.253e-4
0.407, -6.253e-4
0.408, -6.249e-4
0.409, -6.250e-4
0.410, -6.252e-4
0.411, -6.247e-4
0.412, -6.246e-4
0.413, -6.242e-4
0.414, -6.243e-4
0.415, -6.240e-4
0.416, -6.235e-4
0.417, -6.238e-4
0.418, -6.231e-4
0.419, -6.231e-4
0.420, -6.228e-4
0.421, -6.223e-4
0.422, -6.220e-4
0.423, -6.217e-4
0.424, -6.212e-4
0.425, -6.210e-4
0.426, -6.206e-4
0.427, -6.203e-4
0.428, -6.200e-4
0.429, -6.198e-4
0.430, -6.194e-4
0.431, -6.192e-4
0.432, -6.189e-4
0.433, -6.190e-4
0.434, -6.183e-4
0.435, -6.180e-4
0.436, -6.178e-4
0.437, -6.172e-4
0.438, -6.170e-4
0.439, -6.166e-4
0.440, -6.162e-4
0.441, -6.163e-4
0.442, -6.158e-4
0.443, -6.155e-4
0.444, -6.151e-4
0.445, -6.144e-4
0.446, -6.143e-4
0.447, -6.141e-4
0.448, -6.130e-4
0.449, -6.132e-4
0.450, -6.122e-4
0.451, -6.120e-4
0.452, -6.121e-4
0.453, -6.113e-4
0.454, -6.112e-4
0.455, -6.106e-4
0.456, -6.100e-4
0.457, -6.094e-4
0.458, -6.091e-4
0.459, -6.087e-4
0.460, -6.082e-4
0.461, -6.079e-4
0.462, -6.072e-4
0.463, -6.070e-4
0.464, -6.063e-4
0.465, -6.058e-4
0.466, -6.056e-4
0.467, -6.052e-4
0.468, -6.051e-4
0.469, -6.046e-4
0.470, -6.043e-4
0.471, -6.035e-4
0.472, -6.028e-4
0.473, -6.027e-4
0.474, -6.022e-4
0.475, -6.016e-4
0.476, -6.017e-4
0.477, -6.008e-4
0.478, -6.007e-4
0.479, -6.002e-4
0.480, -5.997e-4
0.481, -5.994e-4
0.482, -5.988e-4
0.483, -5.985e-4
0.484, -5.981e-4
0.485, -5.975e-4
0.486, -5.974e-4
0.487, -5.972e-4
0.488, -5.966e-4
0.489, -5.961e-4
0.490, -5.957e-4
0.491, -5.953e-4
0.492, -5.950e-4
0.493, -5.947e-4
0.494, -5.944e-4
0.495, -5.941e-4
0.496, -5.934e-4
0.497, -5.934e-4
0.498, -5.930e-4
0.499, -5.925e-4
0.500, -5.924e-4
0.501, -5.917e-4
0.502, -5.916e-4
0.503, -5.915e-4
0.504, -5.909e-4
0.505, -5.907e-4
0.506, -5.904e-4
0.507, -5.899e-4
0.508, -5.899e-4
0.509, -5.891e-4
0.510, -5.888e-4
0.511, -5.885e-4
0.512, -5.889e-4
0.513, -5.887e-4
0.514, -5.883e-4
0.515, -5.878e-4
0.516, -5.875e-4
0.517, -5.871e-4
0.518, -5.872e-4
0.519, -5.869e-4
0.520, -5.867e-4
0.521, -5.863e-4
0.522, -5.860e-4
0.523, -5.859e-4
0.524, -5.858e-4
0.525, -5.850e-4
0.526, -5.849e-4
0.527, -5.849e-4
0.528, -5.844e-4
0.529, -5.840e-4
0.530, -5.837e-4
0.531, -5.836e-4
0.532, -5.835e-4
0.533, -5.832e-4
0.534, -5.829e-4
0.535, -5.827e-4
0.536, -5.824e-4
0.537, -5.825e-4
0.538, -5.823e-4
0.539, -5.820e-4
0.540, -5.817e-4
0.541, -5.811e-4
0.542, -5.809e-4
0.543, -5.810e-4
0.544, -5.808e-4
0.545, -5.806e-4
0.546, -5.804e-4
0.547, -5.797e-4
0.548, -5.795e-4
0.549, -5.792e-4
0.550, -5.789e-4
0.551, -5.786e-4
0.552, -5.781e-4
0.553, -5.778e-4
0.554, -5.772e-4
0.555, -5.768e-4
0.556, -5.767e-4
0.557, -5.767e-4
0.558, -5.762e-4
0.559, -5.758e-4
0.560, -5.752e-4
0.561, -5.749e-4
0.562, -5.744e-4
0.563, -5.747e-4
0.564, -5.745e-4
0.565, -5.735e-4
0.566, -5.733e-4
0.567, -5.731e-4
0.568, -5.727e-4
0.569, -5.726e-4
0.570, -5.724e-4
0.571, -5.717e-4
0.572, -5.716e-4
0.573, -5.708e-4
0.574, -5.703e-4
0.575, -5.700e-4
0.576, -5.693e-4
0.577, -5.690e-4
0.578, -5.685e-4
0.579, -5.682e-4
0.580, -5.677e-4
0.581, -5.670e-4
0.582, -5.669e-4
0.583, -5.668e-4
0.584, -5.663e-4
0.585, -5.660e-4
0.586, -5.657e-4
0.587, -5.652e-4
0.588, -5.648e-4
0.589, -5.645e-4
0.590, -5.643e-4
0.591, -5.640e-4
0.592, -5.632e-4
0.593, -5.629e-4
0.594, -5.625e-4
0.595, -5.625e-4
0.596, -5.624e-4
0.597, -5.615e-4
0.598, -5.613e-4
0.599, -5.609e-4
0.600, -5.604e-4
0.601, -5.600e-4
0.602, -5.599e-4
0.603, -5.593e-4
0.604, -5.589e-4
0.605, -5.585e-4
0.606, -5.579e-4
0.607, -5.577e-4
0.608, -5.575e-4
0.609, -5.569e-4
0.610, -5.565e-4
0.611, -5.557e-4
0.612, -5.554e-4
0.613, -5.546e-4
0.614, -5.542e-4
0.615, -5.541e-4
0.616, -5.534e-4
0.617, -5.530e-4
0.618, -5.524e-4
0.619, -5.523e-4
0.620, -5.516e-4
0.621, -5.513e-4
0.622, -5.510e-4
0.623, -5.505e-4
0.624, -5.502e-4
0.625, -5.499e-4
0.626, -5.493e-4
0.627, -5.489e-4
0.628, -5.485e-4
0.629, -5.476e-4
0.630, -5.476e-4
0.631, -5.470e-4
0.632, -5.465e-4
0.633, -5.464e-4
0.634, -5.460e-4
0.635, -5.452e-4
0.636, -5.450e-4
0.637, -5.445e-4
0.638, -5.441e-4
0.639, -5.437e-4
0.640, -5.432e-4
0.641, -5.428e-4
0.642, -5.423e-4
0.643, -5.421e-4
0.644, -5.420e-4
0.645, -5.415e-4
0.646, -5.412e-4
0.647, -5.410e-4
0.648, -5.404e-4
0.649, -5.401e-4
0.650, -5.397e-4
0.651, -5.392e-4
0.652, -5.389e-4
0.653, -5.386e-4
0.654, -5.384e-4
0.655, -5.380e-4
0.656, -5.376e-4
0.657, -5.372e-4
0.658, -5.366e-4
0.659, -5.363e-4
0.660, -5.361e-4
0.661, -5.358e-4
0.662, -5.353e-4
0.663, -5.352e-4
0.664, -5.346e-4
0.665, -5.344e-4
0.666, -5.343e-4
0.667, -5.336e-4
0.668, -5.330e-4
0.669, -5.324e-4
0.670, -5.323e-4
0.671, -5.314e-4
0.672, -5.313e-4
0.673, -5.309e-4
0.674, -5.305e-4
0.675, -5.299e-4
0.676, -5.295e-4
0.677, -5.288e-4
0.678, -5.288e-4
0.679, -5.286e-4
0.680, -5.280e-4
0.681, -5.278e-4
0.682, -5.277e-4
0.683, -5.272e-4
0.684, -5.269e-4
0.685, -5.266e-4
0.686, -5.263e-4
0.687, -5.258e-4
0.688, -5.252e-4
0.689, -5.249e-4
0.690, -5.246e-4
0.691, -5.243e-4
0.692, -5.239e-4
0.693, -5.235e-4
0.694, -5.231e-4
0.695, -5.228e-4
0.696, -5.223e-4
0.697, -5.222e-4
0.698, -5.220e-4
0.699, -5.218e-4
0.700, -5.217e-4
0.701, -5.217e-4
0.702, -5.215e-4
0.703, -5.211e-4
0.704, -5.212e-4
0.705, -5.207e-4
0.706, -5.206e-4
0.707, -5.200e-4
0.708, -5.199e-4
0.709, -5.194e-4
0.710, -5.190e-4
0.711, -5.191e-4
0.712, -5.185e-4
0.713, -5.179e-4
0.714, -5.177e-4
0.715, -5.174e-4
0.716, -5.169e-4
0.717, -5.166e-4
0.718, -5.165e-4
0.719, -5.162e-4
0.720, -5.154e-4
0.721, -5.151e-4
0.722, -5.146e-4
0.723, -5.147e-4
0.724, -5.147e-4
0.725, -5.141e-4
0.726, -5.138e-4
0.727, -5.133e-4
0.728, -5.129e-4
0.729, -5.127e-4
0.730, -5.124e-4
0.731, -5.122e-4
0.732, -5.121e-4
0.733, -5.115e-4
0.734, -5.117e-4
0.735, -5.111e-4
0.736, -5.112e-4
0.737, -5.111e-4
0.738, -5.104e-4
0.739, -5.102e-4
0.740, -5.102e-4
0.741, -5.096e-4
0.742, -5.094e-4
0.743, -5.096e-4
0.744, -5.091e-4
0.745, -5.089e-4
0.746, -5.084e-4
0.747, -5.079e-4
0.748, -5.081e-4
0.749, -5.077e-4
0.750, -5.076e-4
0.751, -5.074e-4
0.752, -5.069e-4
0.753, -5.065e-4
0.754, -5.064e-4
0.755, -5.063e-4
0.756, -5.060e-4
0.757, -5.056e-4
0.758, -5.052e-4
0.759, -5.052e-4
0.760, -5.052e-4
0.761, -5.051e-4
0.762, -5.049e-4
0.763, -5.045e-4
0.764, -5.047e-4
0.765, -5.043e-4
0.766, -5.041e-4
0.767, -5.040e-4
0.768, -5.040e-4
0.769, -5.041e-4
0.770, -5.039e-4
0.771, -5.034e-4
0.772, -5.034e-4
0.773, -5.030e-4
0.774, -5.031e-4
0.775, -5.030e-4
0.776, -5.026e-4
0.777, -5.026e-4
0.778, -5.022e-4
0.779, -5.023e-4
0.780, -5.025e-4
0.781, -5.021e-4
0.782, -5.019e-4
0.783, -5.021e-4
0.784, -5.018e-4
0.785, -5.017e-4
0.786, -5.018e-4
0.787, -5.017e-4
0.788, -5.017e-4
0.789, -5.013e-4
0.790, -5.013e-4
0.791, -5.010e-4
0.792, -5.011e-4
0.793, -5.011e-4
0.794, -5.011e-4
0.795, -5.008e-4
0.796, -5.011e-4
0.797, -5.010e-4
0.798, -5.011e-4
0.799, -5.012e-4
0.800, -5.009e-4
0.801, -5.013e-4
0.802, -5.011e-4
0.803, -5.012e-4
0.804, -5.013e-4
0.805, -5.013e-4
0.806, -5.012e-4
0.807, -5.013e-4
0.808, -5.013e-4
0.809, -5.012e-4
0.810, -5.012e-4
0.811, -5.015e-4
0.812, -5.018e-4
0.813, -5.019e-4
0.814, -5.022e-4
0.815, -5.022e-4
0.816, -5.019e-4
0.817, -5.020e-4
0.818, -5.019e-4
0.819, -5.032e-4
0.820, -5.039e-4
0.821, -5.036e-4
0.822, -5.036e-4
0.823, -5.041e-4
0.824, -5.038e-4
0.825, -5.041e-4
0.826, -5.044e-4
0.827, -5.042e-4
0.828, -5.047e-4
0.829, -5.046e-4
0.830, -5.049e-4
0.831, -5.051e-4
0.832, -5.050e-4
0.833, -5.055e-4
0.834, -5.052e-4
0.835, -5.056e-4
0.836, -5.061e-4
0.837, -5.059e-4
0.838, -5.063e-4
0.839, -5.067e-4
0.840, -5.070e-4
0.841, -5.073e-4
0.842, -5.077e-4
0.843, -5.076e-4
0.844, -5.080e-4
0.845, -5.086e-4
0.846, -5.089e-4
0.847, -5.089e-4
0.848, -5.091e-4
0.849, -5.098e-4
0.850, -5.101e-4
0.851, -5.103e-4
0.852, -5.110e-4
0.853, -5.110e-4
0.854, -5.112e-4
0.855, -5.119e-4
0.856, -5.119e-4
0.857, -5.127e-4
0.858, -5.132e-4
0.859, -5.136e-4
0.860, -5.143e-4
0.861, -5.146e-4
0.862, -5.152e-4
0.863, -5.155e-4
0.864, -5.159e-4
0.865, -5.169e-4
0.866, -5.175e-4
0.867, -5.179e-4
0.868, -5.183e-4
0.869, -5.188e-4
0.870, -5.194e-4
0.871, -5.203e-4
0.872, -5.209e-4
0.873, -5.216e-4
0.874, -5.219e-4
0.875, -5.223e-4
0.876, -5.230e-4
0.877, -5.233e-4
0.878, -5.243e-4
0.879, -5.247e-4
0.880, -5.253e-4
0.881, -5.262e-4
0.882, -5.266e-4
0.883, -5.275e-4
0.884, -5.281e-4
0.885, -5.288e-4
0.886, -5.295e-4
0.887, -5.301e-4
0.888, -5.307e-4
0.889, -5.315e-4
0.890, -5.322e-4
0.891, -5.329e-4
0.892, -5.336e-4
0.893, -5.341e-4
0.894, -5.350e-4
0.895, -5.358e-4
0.896, -5.364e-4
0.897, -5.378e-4
0.898, -5.383e-4
0.899, -5.386e-4
0.900, -5.398e-4
0.901, -5.404e-4
0.902, -5.412e-4
0.903, -5.423e-4
0.904, -5.430e-4
0.905, -5.435e-4
0.906, -5.448e-4
0.907, -5.453e-4
0.908, -5.462e-4
0.909, -5.469e-4
0.910, -5.482e-4
0.911, -5.489e-4
0.912, -5.494e-4
0.913, -5.501e-4
0.914, -5.515e-4
0.915, -5.523e-4
0.916, -5.533e-4
0.917, -5.542e-4
0.918, -5.546e-4
0.919, -5.560e-4
0.920, -5.565e-4
0.921, -5.572e-4
0.922, -5.587e-4
0.923, -5.595e-4
0.924, -5.602e-4
0.925, -5.608e-4
0.926, -5.618e-4
0.927, -5.627e-4
0.928, -5.635e-4
0.929, -5.644e-4
0.930, -5.651e-4
0.931, -5.655e-4
0.932, -5.663e-4
0.933, -5.670e-4
0.934, -5.681e-4
0.935, -5.692e-4
0.936, -5.697e-4
0.937, -5.708e-4
0.938, -5.715e-4
0.939, -5.723e-4
0.940, -5.731e-4
0.941, -5.741e-4
0.942, -5.748e-4
0.943, -5.758e-4
0.944, -5.763e-4
0.945, -5.772e-4
0.946, -5.780e-4
0.947, -5.793e-4
0.948, -5.803e-4
0.949, -5.808e-4
0.950, -5.814e-4
0.951, -5.823e-4
0.952, -5.833e-4
0.953, -5.839e-4
0.954, -5.846e-4
0.955, -5.856e-4
0.956, -5.864e-4
0.957, -5.874e-4
0.958, -5.880e-4
0.959, -5.886e-4
0.960, -5.894e-4
0.961, -5.904e-4
0.962, -5.910e-4
0.963, -5.918e-4
0.964, -5.926e-4
0.965, -5.932e-4
0.966, -5.940e-4
0.967, -5.950e-4
0.968, -5.955e-4
0.969, -5.964e-4
0.970, -5.964e-4
0.971, -5.977e-4
0.972, -5.984e-4
0.973, -5.988e-4
0.974, -5.993e-4
0.975, -6.003e-4
0.976, -6.009e-4
0.977, -6.012e-4
0.978, -6.022e-4
0.979, -6.026e-4
0.980, -6.036e-4
0.981, -6.040e-4
0.982, -6.045e-4
0.983, -6.054e-4
0.984, -6.055e-4
0.985, -6.063e-4
0.986, -6.065e-4
0.987, -6.070e-4
0.988, -6.079e-4
0.989, -6.082e-4
0.990, -6.088e-4
0.991, -6.096e-4
0.992, -6.098e-4
0.993, -6.104e-4
0.994, -6.110e-4
0.995, -6.115e-4
0.996, -6.118e-4
0.997, -6.123e-4
0.998, -6.132e-4
0.999, -6.136e-4
1.000, -6.138e-4
1.001, -6.143e-4
1.002, -6.146e-4
1.003, -6.151e-4
1.004, -6.156e-4
1.005, -6.159e-4
1.006, -6.164e-4
1.007, -6.166e-4
1.008, -6.166e-4
1.009, -6.172e-4
1.010, -6.175e-4
1.011, -6.178e-4
1.012, -6.183e-4
1.013, -6.184e-4
1.014, -6.189e-4
1.015, -6.192e-4
1.016, -6.195e-4
1.017, -6.197e-4
1.018, -6.201e-4
1.019, -6.203e-4
1.020, -6.208e-4
1.021, -6.210e-4
1.022, -6.214e-4
1.023, -6.219e-4
1.024, -6.225e-4
1.025, -6.227e-4
1.026, -6.231e-4
1.027, -6.228e-4
1.028, -6.233e-4
1.029, -6.236e-4
1.030, -6.240e-4
1.031, -6.246e-4
1.032, -6.245e-4
1.033, -6.248e-4
1.034, -6.248e-4
1.035, -6.252e-4
1.036, -6.258e-4
1.037, -6.258e-4
1.038, -6.262e-4
1.039, -6.266e-4
1.040, -6.265e-4
1.041, -6.270e-4
1.042, -6.273e-4
1.043, -6.279e-4
1.044, -6.284e-4
1.045, -6.285e-4
1.046, -6.289e-4
1.047, -6.294e-4
1.048, -6.297e-4
1.049, -6.301e-4
1.050, -6.307e-4
1.051, -6.310e-4
1.052, -6.316e-4
1.053, -6.319e-4
1.054, -6.323e-4
1.055, -6.329e-4
1.056, -6.337e-4
1.057, -6.343e-4
1.058, -6.350e-4
1.059, -6.353e-4
1.060, -6.358e-4
1.061, -6.363e-4
1.062, -6.371e-4
1.063, -6.377e-4
1.064, -6.381e-4
1.065, -6.391e-4
1.066, -6.395e-4
1.067, -6.405e-4
1.068, -6.410e-4
1.069, -6.421e-4
1.070, -6.431e-4
1.071, -6.440e-4
1.072, -6.447e-4
1.073, -6.458e-4
1.074, -6.470e-4
1.075, -6.480e-4
1.076, -6.492e-4
1.077, -6.500e-4
1.078, -6.512e-4
1.079, -6.523e-4
1.080, -6.533e-4
1.081, -6.546e-4
1.082, -6.562e-4
1.083, -6.573e-4
1.084, -6.588e-4
1.085, -6.600e-4
1.086, -6.616e-4
1.087, -6.636e-4
1.088, -6.656e-4
1.089, -6.672e-4
1.090, -6.689e-4
1.091, -6.710e-4
1.092, -6.731e-4
1.093, -6.749e-4
1.094, -6.774e-4
1.095, -6.802e-4
1.096, -6.824e-4
1.097, -6.846e-4
1.098, -6.872e-4
1.099, -6.901e-4
1.100, -6.515e-4
1.099, -5.362e-4
1.098, -4.365e-4
1.097, -3.519e-4
1.096, -2.798e-4
1.095, -2.149e-4
1.094, -1.579e-4
1.093, -1.076e-4
1.092, -6.307e-5
1.091, -2.298e-5
1.090, 1.345e-5
1.089, 4.596e-5
1.088, 7.590e-5
1.087, 1.031e-4
1.086, 1.275e-4
1.085, 1.497e-4
1.084, 1.699e-4
1.083, 1.879e-4
1.082, 2.051e-4
1.081, 2.205e-4
1.080, 2.345e-4
1.079, 2.476e-4
1.078, 2.593e-4
1.077, 2.707e-4
1.076, 2.807e-4
1.075, 2.902e-4
1.074, 2.988e-4
1.073, 3.073e-4
1.072, 3.148e-4
1.071, 3.213e-4
1.070, 3.274e-4
1.069, 3.334e-4
1.068, 3.391e-4
1.067, 3.439e-4
1.066, 3.488e-4
1.065, 3.531e-4
1.064, 3.571e-4
1.063, 3.611e-4
1.062, 3.645e-4
1.061, 3.683e-4
1.060, 3.715e-4
1.059, 3.744e-4
1.058, 3.770e-4
1.057, 3.793e-4
1.056, 3.820e-4
1.055, 3.846e-4
1.054, 3.865e-4
1.053, 3.884e-4
1.052, 3.905e-4
1.051, 3.923e-4
1.050, 3.941e-4
1.049, 3.957e-4
1.048, 3.972e-4
1.047, 3.988e-4
1.046, 4.001e-4
1.045, 4.016e-4
1.044, 4.026e-4
1.043, 4.039e-4
1.042, 4.054e-4
1.041, 4.062e-4
1.040, 4.072e-4
1.039, 4.080e-4
1.038, 4.090e-4
1.037, 4.103e-4
1.036, 4.110e-4
1.035, 4.116e-4
1.034, 4.128e-4
1.033, 4.138e-4
1.032, 4.143e-4
1.031, 4.156e-4
1.030, 4.165e-4
1.029, 4.175e-4
1.028, 4.182e-4
1.027, 4.185e-4
1.026, 4.192e-4
1.025, 4.197e-4
1.024, 4.204e-4
1.023, 4.212e-4
1.022, 4.216e-4
1.021, 4.229e-4
1.020, 4.228e-4
1.019, 4.230e-4
1.018, 4.239e-4
1.017, 4.245e-4
1.016, 4.251e-4
1.015, 4.257e-4
1.014, 4.258e-4
1.013, 4.265e-4
1.012, 4.270e-4
1.011, 4.270e-4
1.010, 4.276e-4
1.009, 4.285e-4
1.008, 4.285e-4
1.007, 4.290e-4
1.006, 4.294e-4
1.005, 4.300e-4
1.004, 4.310e-4
1.003, 4.311e-4
1.002, 4.313e-4
1.001, 4.322e-4
1.000, 4.323e-4
0.999, 4.331e-4
0.998, 4.333e-4
0.997, 4.338e-4
0.996, 4.340e-4
0.995, 4.344e-4
0.994, 4.349e-4
0.993, 4.352e-4
0.992, 4.355e-4
0.991, 4.360e-4
0.990, 4.363e-4
0.989, 4.365e-4
0.988, 4.368e-4
0.987, 4.368e-4
0.986, 4.373e-4
0.985, 4.375e-4
0.984, 4.378e-4
0.983, 4.382e-4
0.982, 4.381e-4
0.981, 4.384e-4
0.980, 4.386e-4
0.979, 4.391e-4
0.978, 4.393e-4
0.977, 4.392e-4
0.976, 4.393e-4
0.975, 4.397e-4
0.974, 4.399e-4
0.973, 4.401e-4
0.972, 4.404e-4
0.971, 4.403e-4
0.970, 4.405e-4
0.969, 4.407e-4
0.968, 4.404e-4
0.967, 4.406e-4
0.966, 4.409e-4
0.965, 4.409e-4
0.964, 4.414e-4
0.963, 4.409e-4
0.962, 4.412e-4
0.961, 4.414e-4
0.960, 4.412e-4
0.959, 4.414e-4
0.958, 4.410e-4
0.957, 4.410e-4
0.956, 4.412e-4
0.955, 4.411e-4
0.954, 4.411e-4
0.953, 4.408e-4
0.952, 4.408e-4
0.951, 4.409e-4
0.950, 4.406e-4
0.949, 4.404e-4
0.948, 4.405e-4
0.947, 4.404e-4
0.946, 4.404e-4
0.945, 4.398e-4
0.944, 4.397e-4
0.943, 4.395e-4
0.942, 4.393e-4
0.941, 4.390e-4
0.940, 4.388e-4
0.939, 4.385e-4
0.938, 4.387e-4
0.937, 4.383e-4
0.936, 4.380e-4
0.935, 4.378e-4
0.934, 4.376e-4
0.933, 4.373e-4
0.932, 4.372e-4
0.931, 4.364e-4
0.930, 4.366e-4
0.929, 4.362e-4
0.928, 4.364e-4
0.927, 4.361e-4
0.926, 4.355e-4
0.925, 4.352e-4
0.924, 4.348e-4
0.923, 4.344e-4
0.922, 4.344e-4
0.921, 4.346e-4
0.920, 4.340e-4
0.919, 4.333e-4
0.918, 4.329e-4
0.917, 4.322e-4
0.916, 4.318e-4
0.915, 4.313e-4
0.914, 4.310e-4
0.913, 4.304e-4
0.912, 4.298e-4
0.911, 4.296e-4
0.910, 4.290e-4
0.909, 4.288e-4
0.908, 4.280e-4
0.907, 4.274e-4
0.906, 4.270e-4
0.905, 4.266e-4
0.904, 4.262e-4
0.903, 4.258e-4
0.902, 4.253e-4
0.901, 4.250e-4
0.900, 4.243e-4
0.899, 4.237e-4
0.898, 4.232e-4
0.897, 4.222e-4
0.896, 4.220e-4
0.895, 4.218e-4
0.894, 4.208e-4
0.893, 4.207e-4
0.892, 4.202e-4
0.891, 4.196e-4
0.890, 4.191e-4
0.889, 4.191e-4
0.888, 4.184e-4
0.887, 4.178e-4
0.886, 4.172e-4
0.885, 4.166e-4
0.884, 4.165e-4
0.883, 4.156e-4
0.882, 4.151e-4
0.881, 4.145e-4
0.880, 4.139e-4
0.879, 4.135e-4
0.878, 4.129e-4
0.877, 4.125e-4
0.876, 4.124e-4
0.875, 4.116e-4
0.874, 4.111e-4
0.873, 4.106e-4
0.872, 4.101e-4
0.871, 4.095e-4
0.870, 4.089e-4
0.869, 4.083e-4
0.868, 4.082e-4
0.867, 4.073e-4
0.866, 4.067e-4
0.865, 4.063e-4
0.864, 4.058e-4
0.863, 4.053e-4
0.862, 4.050e-4
0.861, 4.044e-4
0.860, 4.038e-4
0.859, 4.029e-4
0.858, 4.031e-4
0.857, 4.021e-4
0.856, 4.014e-4
0.855, 4.010e-4
0.854, 4.003e-4
0.853, 3.999e-4
0.852, 3.996e-4
0.851, 3.990e-4
0.850, 3.984e-4
0.849, 3.981e-4
0.848, 3.974e-4
0.847, 3.974e-4
0.846, 3.964e-4
0.845, 3.963e-4
0.844, 3.962e-4
0.843, 3.957e-4
0.842, 3.951e-4
0.841, 3.948e-4
0.840, 3.944e-4
0.839, 3.943e-4
0.838, 3.940e-4
0.837, 3.937e-4
0.836, 3.934e-4
0.835, 3.929e-4
0.834, 3.924e-4
0.833, 3.922e-4
0.832, 3.918e-4
0.831, 3.917e-4
0.830, 3.909e-4
0.829, 3.905e-4
0.828, 3.902e-4
0.827, 3.896e-4
0.826, 3.892e-4
0.825, 3.891e-4
0.824, 3.885e-4
0.823, 3.885e-4
0.822, 3.879e-4
0.821, 3.877e-4
0.820, 3.874e-4
0.819, 3.889e-4
0.818, 3.883e-4
0.817, 3.878e-4
0.816, 3.872e-4
0.815, 3.870e-4
0.814, 3.864e-4
0.813, 3.865e-4
0.812, 3.863e-4
0.811, 3.854e-4
0.810, 3.851e-4
0.809, 3.848e-4
0.808, 3.843e-4
0.807, 3.841e-4
0.806, 3.839e-4
0.805, 3.837e-4
0.804, 3.834e-4
0.803, 3.828e-4
0.802, 3.829e-4
0.801, 3.825e-4
0.800, 3.828e-4
0.799, 3.824e-4
0.798, 3.819e-4
0.797, 3.819e-4
0.796, 3.817e-4
0.795, 3.815e-4
0.794, 3.814e-4
0.793, 3.813e-4
0.792, 3.812e-4
0.791, 3.809e-4
0.790, 3.806e-4
0.789, 3.806e-4
0.788, 3.806e-4
0.787, 3.804e-4
0.786, 3.804e-4
0.785, 3.806e-4
0.784, 3.800e-4
0.783, 3.800e-4
0.782, 3.798e-4
0.781, 3.800e-4
0.780, 3.800e-4
0.779, 3.795e-4
0.778, 3.795e-4
0.777, 3.795e-4
0.776, 3.795e-4
0.775, 3.795e-4
0.774, 3.795e-4
0.773, 3.795e-4
0.772, 3.794e-4
0.771, 3.792e-4
0.770, 3.793e-4
0.769, 3.793e-4
0.768, 3.795e-4
0.767, 3.795e-4
0.766, 3.794e-4
0.765, 3.792e-4
0.764, 3.791e-4
0.763, 3.789e-4
0.762, 3.795e-4
0.761, 3.794e-4
0.760, 3.792e-4
0.759, 3.792e-4
0.758, 3.793e-4
0.757, 3.792e-4
0.756, 3.794e-4
0.755, 3.793e-4
0.754, 3.792e-4
0.753, 3.792e-4
0.752, 3.793e-4
0.751, 3.794e-4
0.750, 3.796e-4
0.749, 3.796e-4
0.748, 3.799e-4
0.747, 3.796e-4
0.746, 3.800e-4
0.745, 3.801e-4
0.744, 3.802e-4
0.743, 3.804e-4
0.742, 3.806e-4
0.741, 3.809e-4
0.740, 3.810e-4
0.739, 3.809e-4
0.738, 3.812e-4
0.737, 3.813e-4
0.736, 3.822e-4
0.735, 3.823e-4
0.734, 3.825e-4
0.733, 3.827e-4
0.732, 3.828e-4
0.731, 3.828e-4
0.730, 3.828e-4
0.729, 3.831e-4
0.728, 3.831e-4
0.727, 3.832e-4
0.726, 3.831e-4
0.725, 3.836e-4
0.724, 3.837e-4
0.723, 3.838e-4
0.722, 3.845e-4
0.721, 3.845e-4
0.720, 3.847e-4
0.719, 3.850e-4
0.718, 3.850e-4
0.717, 3.858e-4
0.716, 3.863e-4
0.715, 3.860e-4
0.714, 3.865e-4
0.713, 3.866e-4
0.712, 3.868e-4
0.711, 3.869e-4
0.710, 3.871e-4
0.709, 3.874e-4
0.708, 3.876e-4
0.707, 3.877e-4
0.706, 3.882e-4
0.705, 3.884e-4
0.704, 3.884e-4
0.703, 3.891e-4
0.702, 3.894e-4
0.701, 3.895e-4
0.700, 3.899e-4
0.699, 3.899e-4
0.698, 3.902e-4
0.697, 3.905e-4
0.696, 3.909e-4
0.695, 3.912e-4
0.694, 3.912e-4
0.693, 3.917e-4
0.692, 3.919e-4
0.691, 3.922e-4
0.690, 3.925e-4
0.689, 3.929e-4
0.688, 3.932e-4
0.687, 3.932e-4
0.686, 3.933e-4
0.685, 3.936e-4
0.684, 3.942e-4
0.683, 3.942e-4
0.682, 3.948e-4
0.681, 3.948e-4
0.680, 3.949e-4
0.679, 3.957e-4
0.678, 3.957e-4
0.677, 3.961e-4
0.676, 3.963e-4
0.675, 3.963e-4
0.674, 3.967e-4
0.673, 3.971e-4
0.672, 3.973e-4
0.671, 3.983e-4
0.670, 3.981e-4
0.669, 3.982e-4
0.668, 3.988e-4
0.667, 3.994e-4
0.666, 3.994e-4
0.665, 4.000e-4
0.664, 4.002e-4
0.663, 4.007e-4
0.662, 4.010e-4
0.661, 4.015e-4
0.660, 4.016e-4
0.659, 4.020e-4
0.658, 4.024e-4
0.657, 4.027e-4
0.656, 4.028e-4
0.655, 4.033e-4
0.654, 4.032e-4
0.653, 4.038e-4
0.652, 4.042e-4
0.651, 4.043e-4
0.650, 4.046e-4
0.649, 4.048e-4
0.648, 4.051e-4
0.647, 4.055e-4
0.646, 4.060e-4
0.645, 4.063e-4
0.644, 4.068e-4
0.643, 4.068e-4
0.642, 4.076e-4
0.641, 4.075e-4
0.640, 4.084e-4
0.639, 4.089e-4
0.638, 4.085e-4
0.637, 4.090e-4
0.636, 4.095e-4
0.635, 4.095e-4
0.634, 4.101e-4
0.633, 4.103e-4
0.632, 4.105e-4
0.631, 4.112e-4
0.630, 4.112e-4
0.629, 4.116e-4
0.628, 4.122e-4
0.627, 4.123e-4
0.626, 4.129e-4
0.625, 4.132e-4
0.624, 4.136e-4
0.623, 4.138e-4
0.622, 4.141e-4
0.621, 4.147e-4
0.620, 4.149e-4
0.619, 4.154e-4
0.618, 4.156e-4
0.617, 4.164e-4
0.616, 4.164e-4
0.615, 4.165e-4
0.614, 4.175e-4
0.613, 4.181e-4
0.612, 4.180e-4
0.611, 4.186e-4
0.610, 4.189e-4
0.609, 4.195e-4
0.608, 4.197e-4
0.607, 4.200e-4
0.606, 4.201e-4
0.605, 4.206e-4
0.604, 4.213e-4
0.603, 4.214e-4
0.602, 4.216e-4
0.601, 4.221e-4
0.600, 4.225e-4
0.599, 4.228e-4
0.598, 4.232e-4
0.597, 4.236e-4
0.596, 4.238e-4
0.595, 4.246e-4
0.594, 4.251e-4
0.593, 4.253e-4
0.592, 4.258e-4
0.591, 4.263e-4
0.590, 4.266e-4
0.589, 4.271e-4
0.588, 4.279e-4
0.587, 4.282e-4
0.586, 4.288e-4
0.585, 4.291e-4
0.584, 4.291e-4
0.583, 4.299e-4
0.582, 4.304e-4
0.581, 4.310e-4
0.580, 4.314e-4
0.579, 4.317e-4
0.578, 4.319e-4
0.577, 4.326e-4
0.576, 4.326e-4
0.575, 4.333e-4
0.574, 4.339e-4
0.573, 4.341e-4
0.572, 4.345e-4
0.571, 4.348e-4
0.570, 4.355e-4
0.569, 4.359e-4
0.568, 4.362e-4
0.567, 4.367e-4
0.566, 4.372e-4
0.565, 4.376e-4
0.564, 4.383e-4
0.563, 4.384e-4
0.562, 4.389e-4
0.561, 4.394e-4
0.560, 4.396e-4
0.559, 4.401e-4
0.558, 4.406e-4
0.557, 4.407e-4
0.556, 4.412e-4
0.555, 4.413e-4
0.554, 4.419e-4
0.553, 4.423e-4
0.552, 4.426e-4
0.551, 4.431e-4
0.550, 4.433e-4
0.549, 4.439e-4
0.548, 4.444e-4
0.547, 4.448e-4
0.546, 4.453e-4
0.545, 4.454e-4
0.544, 4.461e-4
0.543, 4.468e-4
0.542, 4.472e-4
0.541, 4.473e-4
0.540, 4.480e-4
0.539, 4.480e-4
0.538, 4.487e-4
0.537, 4.493e-4
0.536, 4.492e-4
0.535, 4.499e-4
0.534, 4.500e-4
0.533, 4.505e-4
0.532, 4.509e-4
0.531, 4.515e-4
0.530, 4.519e-4
0.529, 4.522e-4
0.528, 4.527e-4
0.527, 4.528e-4
0.526, 4.530e-4
0.525, 4.536e-4
0.524, 4.540e-4
0.523, 4.543e-4
0.522, 4.548e-4
0.521, 4.550e-4
0.520, 4.557e-4
0.519, 4.561e-4
0.518, 4.563e-4
0.517, 4.569e-4
0.516, 4.569e-4
0.515, 4.570e-4
0.514, 4.576e-4
0.513, 4.578e-4
0.512, 4.586e-4
0.511, 4.591e-4
0.510, 4.591e-4
0.509, 4.594e-4
0.508, 4.599e-4
0.507, 4.600e-4
0.506, 4.605e-4
0.505, 4.607e-4
0.504, 4.608e-4
0.503, 4.614e-4
0.502, 4.617e-4
0.501, 4.618e-4
0.500, 4.622e-4
0.499, 4.622e-4
0.498, 4.628e-4
0.497, 4.631e-4
0.496, 4.630e-4
0.495, 4.638e-4
0.494, 4.637e-4
0.493, 4.642e-4
0.492, 4.647e-4
0.491, 4.648e-4
0.490, 4.652e-4
0.489, 4.652e-4
0.488, 4.653e-4
0.487, 4.655e-4
0.486, 4.659e-4
0.485, 4.666e-4
0.484, 4.664e-4
0.483, 4.666e-4
0.482, 4.669e-4
0.481, 4.671e-4
0.480, 4.674e-4
0.479, 4.682e-4
0.478, 4.685e-4
0.477, 4.684e-4
0.476, 4.685e-4
0.475, 4.684e-4
0.474, 4.690e-4
0.473, 4.691e-4
0.472, 4.694e-4
0.471, 4.696e-4
0.470, 4.699e-4
0.469, 4.701e-4
0.468, 4.706e-4
0.467, 4.707e-4
0.466, 4.710e-4
0.465, 4.714e-4
0.464, 4.720e-4
0.463, 4.718e-4
0.462, 4.722e-4
0.461, 4.728e-4
0.460, 4.733e-4
0.459, 4.732e-4
0.458, 4.737e-4
0.457, 4.741e-4
0.456, 4.739e-4
0.455, 4.747e-4
0.454, 4.748e-4
0.453, 4.750e-4
0.452, 4.753e-4
0.451, 4.753e-4
0.450, 4.758e-4
0.449, 4.759e-4
0.448, 4.763e-4
0.447, 4.767e-4
0.446, 4.772e-4
0.445, 4.774e-4
0.444, 4.775e-4
0.443, 4.780e-4
0.442, 4.782e-4
0.441, 4.788e-4
0.440, 4.789e-4
0.439, 4.795e-4
0.438, 4.796e-4
0.437, 4.798e-4
0.436, 4.803e-4
0.435, 4.805e-4
0.434, 4.812e-4
0.433, 4.814e-4
0.432, 4.816e-4
0.431, 4.821e-4
0.430, 4.826e-4
0.429, 4.829e-4
0.428, 4.831e-4
0.427, 4.833e-4
0.426, 4.837e-4
0.425, 4.838e-4
0.424, 4.841e-4
0.423, 4.847e-4
0.422, 4.848e-4
0.421, 4.855e-4
0.420, 4.857e-4
0.419, 4.858e-4
0.418, 4.862e-4
0.417, 4.869e-4
0.416, 4.871e-4
0.415, 4.877e-4
0.414, 4.877e-4
0.413, 4.881e-4
0.412, 4.887e-4
0.411, 4.891e-4
0.410, 4.896e-4
0.409, 4.902e-4
0.408, 4.905e-4
0.407, 4.908e-4
0.406, 4.914e-4
0.405, 4.917e-4
0.404, 4.924e-4
0.403, 4.926e-4
0.402, 4.930e-4
0.401, 4.934e-4
0.400, 4.935e-4
0.399, 4.943e-4
0.398, 4.944e-4
0.397, 4.948e-4
0.396, 4.952e-4
0.395, 4.956e-4
0.394, 4.957e-4
0.393, 4.964e-4
0.392, 4.961e-4
0.391, 4.969e-4
0.390, 4.973e-4
0.389, 4.976e-4
0.388, 4.982e-4
0.387, 4.983e-4
0.386, 4.990e-4
0.385, 4.993e-4
0.384, 4.999e-4
0.383, 5.002e-4
0.382, 5.004e-4
0.381, 5.012e-4
0.380, 5.014e-4
0.379, 5.017e-4
0.378, 5.019e-4
0.377, 5.024e-4
0.376, 5.028e-4
0.375, 5.032e-4
0.374, 5.032e-4
0.373, 5.038e-4
0.372, 5.042e-4
0.371, 5.044e-4
0.370, 5.048e-4
0.369, 5.050e-4
0.368, 5.053e-4
0.367, 5.058e-4
0.366, 5.057e-4
0.365, 5.065e-4
0.364, 5.069e-4
0.363, 5.069e-4
0.362, 5.074e-4
0.361, 5.076e-4
0.360, 5.076e-4
0.359, 5.081e-4
0.358, 5.088e-4
0.357, 5.090e-4
0.356, 5.094e-4
0.355, 5.093e-4
0.354, 5.096e-4
0.353, 5.098e-4
0.352, 5.102e-4
0.351, 5.102e-4
0.350, 5.104e-4
0.349, 5.107e-4
0.348, 5.110e-4
0.347, 5.110e-4
0.346, 5.113e-4
0.345, 5.112e-4
0.344, 5.115e-4
0.343, 5.119e-4
0.342, 5.119e-4
0.341, 5.122e-4
0.340, 5.121e-4
0.339, 5.122e-4
0.338, 5.126e-4
0.337, 5.127e-4
0.336, 5.124e-4
0.335, 5.126e-4
0.334, 5.127e-4
0.333, 5.130e-4
0.332, 5.131e-4
0.331, 5.129e-4
0.330, 5.132e-4
0.329, 5.129e-4
0.328, 5.132e-4
0.327, 5.131e-4
0.326, 5.132e-4
0.325, 5.130e-4
0.324, 5.130e-4
0.323, 5.131e-4
0.322, 5.130e-4
0.321, 5.131e-4
0.320, 5.130e-4
0.319, 5.128e-4
0.318, 5.127e-4
0.317, 5.126e-4
0.316, 5.127e-4
0.315, 5.122e-4
0.314, 5.121e-4
0.313, 5.122e-4
0.312, 5.119e-4
0.311, 5.120e-4
0.310, 5.113e-4
0.309, 5.112e-4
0.308, 5.110e-4
0.307, 5.116e-4
0.306, 5.113e-4
0.305, 5.110e-4
0.304, 5.107e-4
0.303, 5.104e-4
0.302, 5.097e-4
0.301, 5.096e-4
0.300, 5.092e-4
0.299, 5.090e-4
0.298, 5.085e-4
0.297, 5.079e-4
0.296, 5.075e-4
0.295, 5.075e-4
0.294, 5.070e-4
0.293, 5.067e-4
0.292, 5.061e-4
0.291, 5.056e-4
0.290, 5.051e-4
0.289, 5.050e-4
0.288, 5.047e-4
0.287, 5.043e-4
0.286, 5.036e-4
0.285, 5.030e-4
0.284, 5.029e-4
0.283, 5.021e-4
0.282, 5.020e-4
0.281, 5.015e-4
0.280, 5.015e-4
0.279, 5.009e-4
0.278, 5.003e-4
0.277, 4.999e-4
0.276, 4.994e-4
0.275, 4.992e-4
0.274, 4.986e-4
0.273, 4.984e-4
0.272, 4.977e-4
0.271, 4.971e-4
0.270, 4.967e-4
0.269, 4.958e-4
0.268, 4.956e-4
0.267, 4.949e-4
0.266, 4.949e-4
0.265, 4.942e-4
0.264, 4.937e-4
0.263, 4.934e-4
0.262, 4.931e-4
0.261, 4.924e-4
0.260, 4.921e-4
0.259, 4.912e-4
0.258, 4.909e-4
0.257, 4.905e-4
0.256, 4.899e-4
0.255, 4.897e-4
0.254, 4.894e-4
0.253, 4.888e-4
0.252, 4.886e-4
0.251, 4.879e-4
0.250, 4.880e-4
0.249, 4.874e-4
0.248, 4.869e-4
0.247, 4.866e-4
0.246, 4.859e-4
0.245, 4.857e-4
0.244, 4.854e-4
0.243, 4.850e-4
0.242, 4.846e-4
0.241, 4.843e-4
0.240, 4.839e-4
0.239, 4.835e-4
0.238, 4.827e-4
0.237, 4.823e-4
0.236, 4.822e-4
0.235, 4.819e-4
0.234, 4.816e-4
0.233, 4.809e-4
0.232, 4.804e-4
0.231, 4.803e-4
0.230, 4.797e-4
0.229, 4.794e-4
0.228, 4.792e-4
0.227, 4.784e-4
0.226, 4.785e-4
0.225, 4.782e-4
0.224, 4.778e-4
0.223, 4.778e-4
0.222, 4.774e-4
0.221, 4.773e-4
0.220, 4.771e-4
0.219, 4.769e-4
0.218, 4.769e-4
0.217, 4.766e-4
0.216, 4.764e-4
0.215, 4.765e-4
0.214, 4.760e-4
0.213, 4.757e-4
0.212, 4.759e-4
0.211, 4.754e-4
0.210, 4.754e-4
0.209, 4.754e-4
0.208, 4.750e-4
0.207, 4.752e-4
0.206, 4.748e-4
0.205, 4.749e-4
0.204, 4.749e-4
0.203, 4.747e-4
0.202, 4.746e-4
0.201, 4.747e-4
0.200, 4.745e-4
0.199, 4.744e-4
0.198, 4.745e-4
0.197, 4.744e-4
0.196, 4.744e-4
0.195, 4.746e-4
0.194, 4.745e-4
0.193, 4.745e-4
0.192, 4.746e-4
0.191, 4.747e-4
0.190, 4.747e-4
0.189, 4.749e-4
0.188, 4.750e-4
0.187, 4.749e-4
0.186, 4.754e-4
0.185, 4.753e-4
0.184, 4.754e-4
0.183, 4.757e-4
0.182, 4.761e-4
0.181, 4.761e-4
0.180, 4.767e-4
0.179, 4.765e-4
0.178, 4.768e-4
0.177, 4.775e-4
0.176, 4.774e-4
0.175, 4.775e-4
0.174, 4.777e-4
0.173, 4.780e-4
0.172, 4.784e-4
0.171, 4.789e-4
0.170, 4.790e-4
0.169, 4.792e-4
0.168, 4.797e-4
0.167, 4.802e-4
0.166, 4.799e-4
0.165, 4.802e-4
0.164, 4.806e-4
0.163, 4.810e-4
0.162, 4.818e-4
0.161, 4.821e-4
0.160, 4.828e-4
0.159, 4.832e-4
0.158, 4.835e-4
0.157, 4.835e-4
0.156, 4.844e-4
0.155, 4.845e-4
0.154, 4.852e-4
0.153, 4.861e-4
0.152, 4.865e-4
0.151, 4.870e-4
0.150, 4.873e-4
0.149, 4.879e-4
0.148, 4.885e-4
0.147, 4.893e-4
0.146, 4.898e-4
0.145, 4.904e-4
0.144, 4.909e-4
0.143, 4.916e-4
0.142, 4.921e-4
0.141, 4.931e-4
0.140, 4.937e-4
0.139, 4.943e-4
0.138, 4.953e-4
0.137, 4.958e-4
0.136, 4.966e-4
0.135, 4.974e-4
0.134, 4.981e-4
0.133, 4.989e-4
0.132, 5.003e-4
0.131, 5.008e-4
0.130, 5.017e-4
0.129, 5.030e-4
0.128, 5.036e-4
0.127, 5.047e-4
0.126, 5.056e-4
0.125, 5.066e-4
0.124, 5.078e-4
0.123, 5.086e-4
0.122, 5.098e-4
0.121, 5.110e-4
0.120, 5.119e-4
0.119, 5.132e-4
0.118, 5.135e-4
0.117, 5.146e-4
0.116, 5.157e-4
0.115, 5.167e-4
0.114, 5.177e-4
0.113, 5.191e-4
0.112, 5.202e-4
0.111, 5.214e-4
0.110, 5.230e-4
0.109, 5.244e-4
0.108, 5.259e-4
0.107, 5.268e-4
0.106, 5.285e-4
0.105, 5.296e-4
0.104, 5.312e-4
0.103, 5.330e-4
0.102, 5.346e-4
0.101, 5.364e-4
0.100, 5.375e-4
0.099, 5.389e-4
0.098, 5.404e-4
0.097, 5.419e-4
0.096, 5.432e-4
0.095, 5.449e-4
0.094, 5.463e-4
0.093, 5.480e-4
0.092, 5.496e-4
0.091, 5.514e-4
0.090, 5.529e-4
0.089, 5.548e-4
0.088, 5.563e-4
0.087, 5.585e-4
0.086, 5.601e-4
0.085, 5.621e-4
0.084, 5.638e-4
0.083, 5.658e-4
0.082, 5.680e-4
0.081, 5.695e-4
0.080, 5.712e-4
0.079, 5.732e-4
0.078, 5.753e-4
0.077, 5.773e-4
0.076, 5.794e-4
0.075, 5.816e-4
0.074, 5.839e-4
0.073, 5.861e-4
0.072, 5.882e-4
0.071, 5.906e-4
0.070, 5.927e-4
0.069, 5.951e-4
0.068, 5.971e-4
0.067, 5.992e-4
0.066, 6.017e-4
0.065, 6.041e-4
0.064, 6.068e-4
0.063, 6.093e-4
0.062, 6.115e-4
0.061, 6.142e-4
0.060, 6.168e-4
0.059, 6.192e-4
0.058, 6.222e-4
0.057, 6.252e-4
0.056, 6.282e-4
0.055, 6.310e-4
0.054, 6.336e-4
0.053, 6.364e-4
0.052, 6.394e-4
0.051, 6.427e-4
0.050, 6.454e-4
0.049, 6.484e-4
0.048, 6.509e-4
0.047, 6.539e-4
0.046, 6.569e-4
0.045, 6.603e-4
0.044, 6.637e-4
0.043, 6.663e-4
0.042, 6.697e-4
0.041, 6.731e-4
0.040, 6.759e-4
0.039, 6.793e-4
0.038, 6.825e-4
0.037, 6.860e-4
0.036, 6.901e-4
0.035, 6.933e-4
0.034, 6.966e-4
0.033, 7.004e-4
0.032, 7.044e-4
0.031, 7.077e-4
0.030, 7.113e-4
0.029, 7.154e-4
0.028, 7.191e-4
0.027, 7.226e-4
0.026, 7.270e-4
0.025, 7.308e-4
0.024, 7.342e-4
0.023, 7.386e-4
0.022, 7.422e-4
0.021, 7.465e-4
0.020, 7.508e-4
0.019, 7.553e-4
0.018, 7.598e-4
0.017, 7.640e-4
0.016, 7.679e-4
0.015, 7.726e-4
0.014, 7.765e-4
0.013, 7.807e-4
0.012, 7.850e-4
0.011, 7.892e-4
0.010, 7.936e-4
0.009, 7.979e-4
0.008, 8.022e-4
0.007, 8.065e-4
0.006, 8.115e-4
0.005, 8.159e-4
0.004, 8.207e-4
0.003, 8.251e-4
0.002, 8.298e-4
0.001, 8.340e-4
0.000, 8.393e-4
-0.001, 8.441e-4
-0.002, 8.485e-4
-0.003, 8.528e-4
-0.004, 8.576e-4
-0.005, 8.620e-4
-0.006, 8.676e-4
-0.007, 8.729e-4
-0.008, 8.778e-4
-0.009, 8.827e-4
-0.010, 8.872e-4
-0.011, 8.923e-4
-0.012, 8.970e-4
-0.013, 9.019e-4
-0.014, 9.070e-4
-0.015, 9.118e-4
-0.016, 9.168e-4
-0.017, 9.219e-4
-0.018, 9.264e-4
-0.019, 9.312e-4
-0.020, 9.361e-4
-0.021, 9.406e-4
-0.022, 9.455e-4
-0.023, 9.503e-4
-0.024, 9.551e-4
-0.025, 9.600e-4
-0.026, 9.649e-4
-0.027, 9.698e-4
-0.028, 9.749e-4
-0.029, 9.796e-4
-0.030, 9.848e-4
-0.031, 9.894e-4
-0.032, 9.942e-4
-0.033, 9.994e-4
-0.034, 1.004e-3
-0.035, 1.009e-3
-0.036, 1.014e-3
-0.037, 1.018e-3
-0.038, 1.023e-3
-0.039, 1.028e-3
-0.040, 1.033e-3
-0.041, 1.037e-3
-0.042, 1.042e-3
-0.043, 1.047e-3
-0.044, 1.051e-3
-0.045, 1.056e-3
-0.046, 1.061e-3
-0.047, 1.065e-3
-0.048, 1.070e-3
-0.049, 1.074e-3
-0.050, 1.079e-3
-0.051, 1.083e-3
-0.052, 1.088e-3
-0.053, 1.092e-3
-0.054, 1.096e-3
-0.055, 1.100e-3
-0.056, 1.105e-3
-0.057, 1.109e-3
-0.058, 1.114e-3
-0.059, 1.118e-3
-0.060, 1.123e-3
-0.061, 1.126e-3
-0.062, 1.131e-3
-0.063, 1.135e-3
-0.064, 1.139e-3
-0.065, 1.144e-3
-0.066, 1.148e-3
-0.067, 1.152e-3
-0.068, 1.155e-3
-0.069, 1.160e-3
-0.070, 1.164e-3
-0.071, 1.168e-3
-0.072, 1.172e-3
-0.073, 1.176e-3
-0.074, 1.180e-3
-0.075, 1.184e-3
-0.076, 1.187e-3
-0.077, 1.191e-3
-0.078, 1.195e-3
-0.079, 1.198e-3
-0.080, 1.202e-3
-0.081, 1.206e-3
-0.082, 1.209e-3
-0.083, 1.213e-3
-0.084, 1.217e-3
-0.085, 1.220e-3
-0.086, 1.224e-3
-0.087, 1.227e-3
-0.088, 1.231e-3
-0.089, 1.234e-3
-0.090, 1.237e-3
-0.091, 1.240e-3
-0.092, 1.244e-3
-0.093, 1.247e-3
-0.094, 1.250e-3
-0.095, 1.253e-3
-0.096, 1.256e-3
-0.097, 1.259e-3
-0.098, 1.262e-3
-0.099, 1.265e-3
