Mar. 10, 2025   11:36:07
Cyclic Voltammetry
File: f:\catholicate college\new ruo2\ruo2 scr 0.01 [-0.1-1.1].txt
Data Source:  Experiment
Instrument Model:  CHI6087E
Header: 
Note: 

Init E (V) = -0.1
High E (V) = 1.1
Low E (V) = -0.1
Init P/N = P
Scan Rate (V/s) = 0.01
Segment = 4
Sample Interval (V) = 0.001
Quiet Time (sec) = 2
Sensitivity (A/V) = 0.01

Results:

Channel 1:
Segment 1:

Segment 2:

Segment 3:

Segment 4:

Potential/V, Current/A

-0.100, 6.726e-3
-0.099, 6.541e-3
-0.098, 6.363e-3
-0.097, 6.195e-3
-0.096, 6.035e-3
-0.095, 5.883e-3
-0.094, 5.736e-3
-0.093, 5.595e-3
-0.092, 5.458e-3
-0.091, 5.327e-3
-0.090, 5.201e-3
-0.089, 5.078e-3
-0.088, 4.960e-3
-0.087, 4.845e-3
-0.086, 4.732e-3
-0.085, 4.624e-3
-0.084, 4.519e-3
-0.083, 4.417e-3
-0.082, 4.317e-3
-0.081, 4.220e-3
-0.080, 4.126e-3
-0.079, 4.033e-3
-0.078, 3.942e-3
-0.077, 3.853e-3
-0.076, 3.767e-3
-0.075, 3.683e-3
-0.074, 3.600e-3
-0.073, 3.519e-3
-0.072, 3.440e-3
-0.071, 3.363e-3
-0.070, 3.286e-3
-0.069, 3.211e-3
-0.068, 3.137e-3
-0.067, 3.066e-3
-0.066, 2.996e-3
-0.065, 2.926e-3
-0.064, 2.858e-3
-0.063, 2.793e-3
-0.062, 2.727e-3
-0.061, 2.663e-3
-0.060, 2.600e-3
-0.059, 2.538e-3
-0.058, 2.477e-3
-0.057, 2.415e-3
-0.056, 2.356e-3
-0.055, 2.297e-3
-0.054, 2.240e-3
-0.053, 2.184e-3
-0.052, 2.128e-3
-0.051, 2.073e-3
-0.050, 2.019e-3
-0.049, 1.966e-3
-0.048, 1.914e-3
-0.047, 1.863e-3
-0.046, 1.812e-3
-0.045, 1.762e-3
-0.044, 1.713e-3
-0.043, 1.664e-3
-0.042, 1.615e-3
-0.041, 1.568e-3
-0.040, 1.521e-3
-0.039, 1.475e-3
-0.038, 1.431e-3
-0.037, 1.386e-3
-0.036, 1.342e-3
-0.035, 1.299e-3
-0.034, 1.256e-3
-0.033, 1.214e-3
-0.032, 1.173e-3
-0.031, 1.131e-3
-0.030, 1.091e-3
-0.029, 1.051e-3
-0.028, 1.012e-3
-0.027, 9.731e-4
-0.026, 9.346e-4
-0.025, 8.963e-4
-0.024, 8.581e-4
-0.023, 8.209e-4
-0.022, 7.845e-4
-0.021, 7.486e-4
-0.020, 7.130e-4
-0.019, 6.781e-4
-0.018, 6.437e-4
-0.017, 6.094e-4
-0.016, 5.760e-4
-0.015, 5.426e-4
-0.014, 5.097e-4
-0.013, 4.770e-4
-0.012, 4.451e-4
-0.011, 4.137e-4
-0.010, 3.825e-4
-0.009, 3.516e-4
-0.008, 3.215e-4
-0.007, 2.913e-4
-0.006, 2.617e-4
-0.005, 2.327e-4
-0.004, 2.036e-4
-0.003, 1.754e-4
-0.002, 1.472e-4
-0.001, 1.193e-4
-0.000, 9.018e-5
0.001, 6.204e-5
0.002, 3.553e-5
0.003, 9.346e-6
0.004, -1.679e-5
0.005, -4.220e-5
0.006, -6.772e-5
0.007, -9.277e-5
0.008, -1.170e-4
0.009, -1.414e-4
0.010, -1.655e-4
0.011, -1.892e-4
0.012, -2.127e-4
0.013, -2.357e-4
0.014, -2.587e-4
0.015, -2.813e-4
0.016, -3.035e-4
0.017, -3.242e-4
0.018, -3.455e-4
0.019, -3.670e-4
0.020, -3.881e-4
0.021, -4.088e-4
0.022, -4.293e-4
0.023, -4.496e-4
0.024, -4.694e-4
0.025, -4.891e-4
0.026, -5.085e-4
0.027, -5.275e-4
0.028, -5.466e-4
0.029, -5.650e-4
0.030, -5.835e-4
0.031, -6.017e-4
0.032, -6.197e-4
0.033, -6.373e-4
0.034, -6.547e-4
0.035, -6.718e-4
0.036, -6.888e-4
0.037, -7.061e-4
0.038, -7.227e-4
0.039, -7.389e-4
0.040, -7.548e-4
0.041, -7.705e-4
0.042, -7.859e-4
0.043, -8.012e-4
0.044, -8.163e-4
0.045, -8.311e-4
0.046, -8.458e-4
0.047, -8.603e-4
0.048, -8.742e-4
0.049, -8.880e-4
0.050, -9.014e-4
0.051, -9.152e-4
0.052, -9.286e-4
0.053, -9.417e-4
0.054, -9.546e-4
0.055, -9.673e-4
0.056, -9.797e-4
0.057, -9.923e-4
0.058, -1.004e-3
0.059, -1.016e-3
0.060, -1.028e-3
0.061, -1.039e-3
0.062, -1.051e-3
0.063, -1.062e-3
0.064, -1.073e-3
0.065, -1.084e-3
0.066, -1.094e-3
0.067, -1.105e-3
0.068, -1.115e-3
0.069, -1.125e-3
0.070, -1.135e-3
0.071, -1.145e-3
0.072, -1.154e-3
0.073, -1.164e-3
0.074, -1.173e-3
0.075, -1.182e-3
0.076, -1.191e-3
0.077, -1.200e-3
0.078, -1.209e-3
0.079, -1.217e-3
0.080, -1.225e-3
0.081, -1.234e-3
0.082, -1.242e-3
0.083, -1.250e-3
0.084, -1.258e-3
0.085, -1.265e-3
0.086, -1.272e-3
0.087, -1.280e-3
0.088, -1.287e-3
0.089, -1.294e-3
0.090, -1.301e-3
0.091, -1.308e-3
0.092, -1.314e-3
0.093, -1.321e-3
0.094, -1.327e-3
0.095, -1.334e-3
0.096, -1.340e-3
0.097, -1.346e-3
0.098, -1.352e-3
0.099, -1.358e-3
0.100, -1.364e-3
0.101, -1.369e-3
0.102, -1.375e-3
0.103, -1.381e-3
0.104, -1.387e-3
0.105, -1.392e-3
0.106, -1.397e-3
0.107, -1.401e-3
0.108, -1.406e-3
0.109, -1.411e-3
0.110, -1.416e-3
0.111, -1.421e-3
0.112, -1.425e-3
0.113, -1.430e-3
0.114, -1.434e-3
0.115, -1.438e-3
0.116, -1.443e-3
0.117, -1.446e-3
0.118, -1.451e-3
0.119, -1.455e-3
0.120, -1.458e-3
0.121, -1.462e-3
0.122, -1.466e-3
0.123, -1.469e-3
0.124, -1.473e-3
0.125, -1.476e-3
0.126, -1.480e-3
0.127, -1.484e-3
0.128, -1.488e-3
0.129, -1.491e-3
0.130, -1.495e-3
0.131, -1.498e-3
0.132, -1.501e-3
0.133, -1.504e-3
0.134, -1.507e-3
0.135, -1.510e-3
0.136, -1.513e-3
0.137, -1.516e-3
0.138, -1.519e-3
0.139, -1.521e-3
0.140, -1.524e-3
0.141, -1.527e-3
0.142, -1.529e-3
0.143, -1.532e-3
0.144, -1.534e-3
0.145, -1.537e-3
0.146, -1.539e-3
0.147, -1.542e-3
0.148, -1.545e-3
0.149, -1.547e-3
0.150, -1.549e-3
0.151, -1.552e-3
0.152, -1.554e-3
0.153, -1.556e-3
0.154, -1.559e-3
0.155, -1.561e-3
0.156, -1.563e-3
0.157, -1.565e-3
0.158, -1.568e-3
0.159, -1.570e-3
0.160, -1.572e-3
0.161, -1.574e-3
0.162, -1.576e-3
0.163, -1.578e-3
0.164, -1.581e-3
0.165, -1.582e-3
0.166, -1.585e-3
0.167, -1.587e-3
0.168, -1.588e-3
0.169, -1.591e-3
0.170, -1.592e-3
0.171, -1.594e-3
0.172, -1.596e-3
0.173, -1.598e-3
0.174, -1.600e-3
0.175, -1.602e-3
0.176, -1.604e-3
0.177, -1.606e-3
0.178, -1.608e-3
0.179, -1.610e-3
0.180, -1.612e-3
0.181, -1.614e-3
0.182, -1.616e-3
0.183, -1.617e-3
0.184, -1.619e-3
0.185, -1.621e-3
0.186, -1.623e-3
0.187, -1.625e-3
0.188, -1.627e-3
0.189, -1.628e-3
0.190, -1.630e-3
0.191, -1.632e-3
0.192, -1.634e-3
0.193, -1.636e-3
0.194, -1.638e-3
0.195, -1.639e-3
0.196, -1.641e-3
0.197, -1.643e-3
0.198, -1.645e-3
0.199, -1.647e-3
0.200, -1.649e-3
0.201, -1.650e-3
0.202, -1.652e-3
0.203, -1.654e-3
0.204, -1.656e-3
0.205, -1.658e-3
0.206, -1.660e-3
0.207, -1.662e-3
0.208, -1.664e-3
0.209, -1.666e-3
0.210, -1.668e-3
0.211, -1.670e-3
0.212, -1.672e-3
0.213, -1.674e-3
0.214, -1.676e-3
0.215, -1.678e-3
0.216, -1.680e-3
0.217, -1.682e-3
0.218, -1.684e-3
0.219, -1.686e-3
0.220, -1.688e-3
0.221, -1.690e-3
0.222, -1.692e-3
0.223, -1.695e-3
0.224, -1.697e-3
0.225, -1.699e-3
0.226, -1.701e-3
0.227, -1.703e-3
0.228, -1.705e-3
0.229, -1.707e-3
0.230, -1.710e-3
0.231, -1.712e-3
0.232, -1.714e-3
0.233, -1.717e-3
0.234, -1.719e-3
0.235, -1.721e-3
0.236, -1.724e-3
0.237, -1.726e-3
0.238, -1.729e-3
0.239, -1.731e-3
0.240, -1.733e-3
0.241, -1.736e-3
0.242, -1.738e-3
0.243, -1.740e-3
0.244, -1.743e-3
0.245, -1.745e-3
0.246, -1.748e-3
0.247, -1.750e-3
0.248, -1.753e-3
0.249, -1.755e-3
0.250, -1.758e-3
0.251, -1.761e-3
0.252, -1.763e-3
0.253, -1.766e-3
0.254, -1.768e-3
0.255, -1.771e-3
0.256, -1.774e-3
0.257, -1.777e-3
0.258, -1.780e-3
0.259, -1.782e-3
0.260, -1.785e-3
0.261, -1.788e-3
0.262, -1.791e-3
0.263, -1.794e-3
0.264, -1.796e-3
0.265, -1.799e-3
0.266, -1.802e-3
0.267, -1.805e-3
0.268, -1.808e-3
0.269, -1.811e-3
0.270, -1.814e-3
0.271, -1.817e-3
0.272, -1.819e-3
0.273, -1.823e-3
0.274, -1.826e-3
0.275, -1.829e-3
0.276, -1.832e-3
0.277, -1.835e-3
0.278, -1.838e-3
0.279, -1.841e-3
0.280, -1.844e-3
0.281, -1.848e-3
0.282, -1.851e-3
0.283, -1.854e-3
0.284, -1.857e-3
0.285, -1.860e-3
0.286, -1.864e-3
0.287, -1.867e-3
0.288, -1.871e-3
0.289, -1.874e-3
0.290, -1.877e-3
0.291, -1.880e-3
0.292, -1.883e-3
0.293, -1.886e-3
0.294, -1.889e-3
0.295, -1.893e-3
0.296, -1.896e-3
0.297, -1.900e-3
0.298, -1.903e-3
0.299, -1.906e-3
0.300, -1.910e-3
0.301, -1.914e-3
0.302, -1.917e-3
0.303, -1.921e-3
0.304, -1.925e-3
0.305, -1.928e-3
0.306, -1.932e-3
0.307, -1.936e-3
0.308, -1.940e-3
0.309, -1.943e-3
0.310, -1.946e-3
0.311, -1.950e-3
0.312, -1.954e-3
0.313, -1.958e-3
0.314, -1.961e-3
0.315, -1.965e-3
0.316, -1.969e-3
0.317, -1.973e-3
0.318, -1.976e-3
0.319, -1.980e-3
0.320, -1.984e-3
0.321, -1.988e-3
0.322, -1.991e-3
0.323, -1.995e-3
0.324, -1.999e-3
0.325, -2.002e-3
0.326, -2.006e-3
0.327, -2.010e-3
0.328, -2.014e-3
0.329, -2.018e-3
0.330, -2.021e-3
0.331, -2.025e-3
0.332, -2.029e-3
0.333, -2.033e-3
0.334, -2.037e-3
0.335, -2.041e-3
0.336, -2.044e-3
0.337, -2.048e-3
0.338, -2.052e-3
0.339, -2.056e-3
0.340, -2.060e-3
0.341, -2.063e-3
0.342, -2.067e-3
0.343, -2.071e-3
0.344, -2.074e-3
0.345, -2.078e-3
0.346, -2.082e-3
0.347, -2.085e-3
0.348, -2.089e-3
0.349, -2.093e-3
0.350, -2.096e-3
0.351, -2.100e-3
0.352, -2.104e-3
0.353, -2.108e-3
0.354, -2.111e-3
0.355, -2.115e-3
0.356, -2.119e-3
0.357, -2.122e-3
0.358, -2.126e-3
0.359, -2.130e-3
0.360, -2.133e-3
0.361, -2.137e-3
0.362, -2.140e-3
0.363, -2.144e-3
0.364, -2.147e-3
0.365, -2.151e-3
0.366, -2.154e-3
0.367, -2.158e-3
0.368, -2.161e-3
0.369, -2.165e-3
0.370, -2.168e-3
0.371, -2.171e-3
0.372, -2.175e-3
0.373, -2.178e-3
0.374, -2.182e-3
0.375, -2.185e-3
0.376, -2.188e-3
0.377, -2.191e-3
0.378, -2.194e-3
0.379, -2.197e-3
0.380, -2.201e-3
0.381, -2.203e-3
0.382, -2.207e-3
0.383, -2.210e-3
0.384, -2.213e-3
0.385, -2.216e-3
0.386, -2.219e-3
0.387, -2.222e-3
0.388, -2.225e-3
0.389, -2.228e-3
0.390, -2.231e-3
0.391, -2.234e-3
0.392, -2.236e-3
0.393, -2.239e-3
0.394, -2.242e-3
0.395, -2.245e-3
0.396, -2.248e-3
0.397, -2.250e-3
0.398, -2.253e-3
0.399, -2.255e-3
0.400, -2.258e-3
0.401, -2.261e-3
0.402, -2.263e-3
0.403, -2.266e-3
0.404, -2.269e-3
0.405, -2.271e-3
0.406, -2.274e-3
0.407, -2.276e-3
0.408, -2.278e-3
0.409, -2.281e-3
0.410, -2.283e-3
0.411, -2.285e-3
0.412, -2.288e-3
0.413, -2.289e-3
0.414, -2.292e-3
0.415, -2.294e-3
0.416, -2.296e-3
0.417, -2.298e-3
0.418, -2.300e-3
0.419, -2.301e-3
0.420, -2.303e-3
0.421, -2.305e-3
0.422, -2.307e-3
0.423, -2.309e-3
0.424, -2.310e-3
0.425, -2.312e-3
0.426, -2.314e-3
0.427, -2.315e-3
0.428, -2.317e-3
0.429, -2.318e-3
0.430, -2.320e-3
0.431, -2.322e-3
0.432, -2.323e-3
0.433, -2.324e-3
0.434, -2.326e-3
0.435, -2.327e-3
0.436, -2.329e-3
0.437, -2.330e-3
0.438, -2.331e-3
0.439, -2.332e-3
0.440, -2.333e-3
0.441, -2.335e-3
0.442, -2.336e-3
0.443, -2.337e-3
0.444, -2.338e-3
0.445, -2.339e-3
0.446, -2.340e-3
0.447, -2.341e-3
0.448, -2.342e-3
0.449, -2.343e-3
0.450, -2.344e-3
0.451, -2.345e-3
0.452, -2.346e-3
0.453, -2.347e-3
0.454, -2.348e-3
0.455, -2.349e-3
0.456, -2.349e-3
0.457, -2.350e-3
0.458, -2.351e-3
0.459, -2.351e-3
0.460, -2.352e-3
0.461, -2.353e-3
0.462, -2.354e-3
0.463, -2.355e-3
0.464, -2.355e-3
0.465, -2.356e-3
0.466, -2.356e-3
0.467, -2.357e-3
0.468, -2.358e-3
0.469, -2.358e-3
0.470, -2.359e-3
0.471, -2.359e-3
0.472, -2.360e-3
0.473, -2.360e-3
0.474, -2.361e-3
0.475, -2.361e-3
0.476, -2.362e-3
0.477, -2.362e-3
0.478, -2.362e-3
0.479, -2.363e-3
0.480, -2.363e-3
0.481, -2.364e-3
0.482, -2.364e-3
0.483, -2.364e-3
0.484, -2.365e-3
0.485, -2.365e-3
0.486, -2.366e-3
0.487, -2.366e-3
0.488, -2.366e-3
0.489, -2.366e-3
0.490, -2.366e-3
0.491, -2.367e-3
0.492, -2.367e-3
0.493, -2.367e-3
0.494, -2.368e-3
0.495, -2.368e-3
0.496, -2.368e-3
0.497, -2.368e-3
0.498, -2.368e-3
0.499, -2.368e-3
0.500, -2.368e-3
0.501, -2.368e-3
0.502, -2.369e-3
0.503, -2.368e-3
0.504, -2.368e-3
0.505, -2.369e-3
0.506, -2.369e-3
0.507, -2.369e-3
0.508, -2.369e-3
0.509, -2.369e-3
0.510, -2.369e-3
0.511, -2.369e-3
0.512, -2.370e-3
0.513, -2.370e-3
0.514, -2.370e-3
0.515, -2.370e-3
0.516, -2.369e-3
0.517, -2.369e-3
0.518, -2.369e-3
0.519, -2.369e-3
0.520, -2.369e-3
0.521, -2.369e-3
0.522, -2.369e-3
0.523, -2.369e-3
0.524, -2.369e-3
0.525, -2.368e-3
0.526, -2.368e-3
0.527, -2.368e-3
0.528, -2.368e-3
0.529, -2.368e-3
0.530, -2.367e-3
0.531, -2.367e-3
0.532, -2.367e-3
0.533, -2.367e-3
0.534, -2.367e-3
0.535, -2.366e-3
0.536, -2.366e-3
0.537, -2.366e-3
0.538, -2.366e-3
0.539, -2.366e-3
0.540, -2.365e-3
0.541, -2.365e-3
0.542, -2.365e-3
0.543, -2.364e-3
0.544, -2.364e-3
0.545, -2.364e-3
0.546, -2.364e-3
0.547, -2.363e-3
0.548, -2.363e-3
0.549, -2.363e-3
0.550, -2.362e-3
0.551, -2.362e-3
0.552, -2.362e-3
0.553, -2.361e-3
0.554, -2.361e-3
0.555, -2.361e-3
0.556, -2.360e-3
0.557, -2.360e-3
0.558, -2.360e-3
0.559, -2.360e-3
0.560, -2.359e-3
0.561, -2.359e-3
0.562, -2.358e-3
0.563, -2.358e-3
0.564, -2.358e-3
0.565, -2.357e-3
0.566, -2.357e-3
0.567, -2.357e-3
0.568, -2.356e-3
0.569, -2.356e-3
0.570, -2.356e-3
0.571, -2.355e-3
0.572, -2.355e-3
0.573, -2.354e-3
0.574, -2.354e-3
0.575, -2.353e-3
0.576, -2.352e-3
0.577, -2.352e-3
0.578, -2.351e-3
0.579, -2.351e-3
0.580, -2.350e-3
0.581, -2.349e-3
0.582, -2.349e-3
0.583, -2.349e-3
0.584, -2.348e-3
0.585, -2.347e-3
0.586, -2.346e-3
0.587, -2.346e-3
0.588, -2.345e-3
0.589, -2.345e-3
0.590, -2.344e-3
0.591, -2.343e-3
0.592, -2.342e-3
0.593, -2.342e-3
0.594, -2.341e-3
0.595, -2.341e-3
0.596, -2.340e-3
0.597, -2.339e-3
0.598, -2.338e-3
0.599, -2.337e-3
0.600, -2.336e-3
0.601, -2.336e-3
0.602, -2.335e-3
0.603, -2.334e-3
0.604, -2.333e-3
0.605, -2.332e-3
0.606, -2.331e-3
0.607, -2.331e-3
0.608, -2.330e-3
0.609, -2.329e-3
0.610, -2.328e-3
0.611, -2.327e-3
0.612, -2.326e-3
0.613, -2.325e-3
0.614, -2.324e-3
0.615, -2.324e-3
0.616, -2.323e-3
0.617, -2.322e-3
0.618, -2.320e-3
0.619, -2.319e-3
0.620, -2.319e-3
0.621, -2.318e-3
0.622, -2.317e-3
0.623, -2.315e-3
0.624, -2.314e-3
0.625, -2.313e-3
0.626, -2.312e-3
0.627, -2.311e-3
0.628, -2.310e-3
0.629, -2.309e-3
0.630, -2.307e-3
0.631, -2.306e-3
0.632, -2.305e-3
0.633, -2.304e-3
0.634, -2.303e-3
0.635, -2.302e-3
0.636, -2.301e-3
0.637, -2.299e-3
0.638, -2.298e-3
0.639, -2.297e-3
0.640, -2.296e-3
0.641, -2.295e-3
0.642, -2.294e-3
0.643, -2.292e-3
0.644, -2.291e-3
0.645, -2.290e-3
0.646, -2.289e-3
0.647, -2.288e-3
0.648, -2.286e-3
0.649, -2.285e-3
0.650, -2.284e-3
0.651, -2.282e-3
0.652, -2.281e-3
0.653, -2.280e-3
0.654, -2.278e-3
0.655, -2.277e-3
0.656, -2.275e-3
0.657, -2.274e-3
0.658, -2.273e-3
0.659, -2.272e-3
0.660, -2.270e-3
0.661, -2.269e-3
0.662, -2.267e-3
0.663, -2.266e-3
0.664, -2.264e-3
0.665, -2.263e-3
0.666, -2.262e-3
0.667, -2.261e-3
0.668, -2.259e-3
0.669, -2.258e-3
0.670, -2.256e-3
0.671, -2.255e-3
0.672, -2.254e-3
0.673, -2.253e-3
0.674, -2.251e-3
0.675, -2.250e-3
0.676, -2.249e-3
0.677, -2.247e-3
0.678, -2.246e-3
0.679, -2.244e-3
0.680, -2.243e-3
0.681, -2.241e-3
0.682, -2.240e-3
0.683, -2.239e-3
0.684, -2.237e-3
0.685, -2.236e-3
0.686, -2.235e-3
0.687, -2.233e-3
0.688, -2.232e-3
0.689, -2.230e-3
0.690, -2.229e-3
0.691, -2.228e-3
0.692, -2.227e-3
0.693, -2.225e-3
0.694, -2.224e-3
0.695, -2.223e-3
0.696, -2.221e-3
0.697, -2.220e-3
0.698, -2.219e-3
0.699, -2.218e-3
0.700, -2.216e-3
0.701, -2.214e-3
0.702, -2.213e-3
0.703, -2.212e-3
0.704, -2.210e-3
0.705, -2.209e-3
0.706, -2.208e-3
0.707, -2.206e-3
0.708, -2.205e-3
0.709, -2.204e-3
0.710, -2.202e-3
0.711, -2.201e-3
0.712, -2.200e-3
0.713, -2.199e-3
0.714, -2.197e-3
0.715, -2.196e-3
0.716, -2.195e-3
0.717, -2.194e-3
0.718, -2.193e-3
0.719, -2.191e-3
0.720, -2.190e-3
0.721, -2.189e-3
0.722, -2.188e-3
0.723, -2.186e-3
0.724, -2.185e-3
0.725, -2.184e-3
0.726, -2.182e-3
0.727, -2.181e-3
0.728, -2.179e-3
0.729, -2.178e-3
0.730, -2.177e-3
0.731, -2.176e-3
0.732, -2.174e-3
0.733, -2.173e-3
0.734, -2.172e-3
0.735, -2.170e-3
0.736, -2.169e-3
0.737, -2.168e-3
0.738, -2.166e-3
0.739, -2.165e-3
0.740, -2.164e-3
0.741, -2.162e-3
0.742, -2.161e-3
0.743, -2.160e-3
0.744, -2.159e-3
0.745, -2.158e-3
0.746, -2.156e-3
0.747, -2.155e-3
0.748, -2.154e-3
0.749, -2.153e-3
0.750, -2.152e-3
0.751, -2.151e-3
0.752, -2.149e-3
0.753, -2.148e-3
0.754, -2.147e-3
0.755, -2.146e-3
0.756, -2.145e-3
0.757, -2.144e-3
0.758, -2.143e-3
0.759, -2.142e-3
0.760, -2.141e-3
0.761, -2.140e-3
0.762, -2.139e-3
0.763, -2.138e-3
0.764, -2.137e-3
0.765, -2.135e-3
0.766, -2.135e-3
0.767, -2.134e-3
0.768, -2.133e-3
0.769, -2.132e-3
0.770, -2.131e-3
0.771, -2.130e-3
0.772, -2.130e-3
0.773, -2.129e-3
0.774, -2.128e-3
0.775, -2.127e-3
0.776, -2.126e-3
0.777, -2.126e-3
0.778, -2.125e-3
0.779, -2.124e-3
0.780, -2.123e-3
0.781, -2.123e-3
0.782, -2.122e-3
0.783, -2.121e-3
0.784, -2.120e-3
0.785, -2.120e-3
0.786, -2.119e-3
0.787, -2.119e-3
0.788, -2.118e-3
0.789, -2.118e-3
0.790, -2.117e-3
0.791, -2.117e-3
0.792, -2.116e-3
0.793, -2.116e-3
0.794, -2.116e-3
0.795, -2.115e-3
0.796, -2.115e-3
0.797, -2.114e-3
0.798, -2.114e-3
0.799, -2.114e-3
0.800, -2.113e-3
0.801, -2.113e-3
0.802, -2.113e-3
0.803, -2.112e-3
0.804, -2.112e-3
0.805, -2.112e-3
0.806, -2.112e-3
0.807, -2.112e-3
0.808, -2.112e-3
0.809, -2.112e-3
0.810, -2.112e-3
0.811, -2.112e-3
0.812, -2.112e-3
0.813, -2.112e-3
0.814, -2.112e-3
0.815, -2.112e-3
0.816, -2.112e-3
0.817, -2.112e-3
0.818, -2.112e-3
0.819, -2.114e-3
0.820, -2.115e-3
0.821, -2.115e-3
0.822, -2.115e-3
0.823, -2.115e-3
0.824, -2.115e-3
0.825, -2.116e-3
0.826, -2.116e-3
0.827, -2.117e-3
0.828, -2.117e-3
0.829, -2.117e-3
0.830, -2.118e-3
0.831, -2.118e-3
0.832, -2.119e-3
0.833, -2.120e-3
0.834, -2.120e-3
0.835, -2.121e-3
0.836, -2.121e-3
0.837, -2.122e-3
0.838, -2.123e-3
0.839, -2.124e-3
0.840, -2.124e-3
0.841, -2.125e-3
0.842, -2.126e-3
0.843, -2.127e-3
0.844, -2.128e-3
0.845, -2.129e-3
0.846, -2.130e-3
0.847, -2.131e-3
0.848, -2.132e-3
0.849, -2.133e-3
0.850, -2.134e-3
0.851, -2.136e-3
0.852, -2.137e-3
0.853, -2.138e-3
0.854, -2.139e-3
0.855, -2.141e-3
0.856, -2.142e-3
0.857, -2.143e-3
0.858, -2.145e-3
0.859, -2.146e-3
0.860, -2.147e-3
0.861, -2.148e-3
0.862, -2.150e-3
0.863, -2.152e-3
0.864, -2.153e-3
0.865, -2.155e-3
0.866, -2.156e-3
0.867, -2.158e-3
0.868, -2.160e-3
0.869, -2.161e-3
0.870, -2.163e-3
0.871, -2.165e-3
0.872, -2.167e-3
0.873, -2.169e-3
0.874, -2.170e-3
0.875, -2.172e-3
0.876, -2.174e-3
0.877, -2.176e-3
0.878, -2.178e-3
0.879, -2.180e-3
0.880, -2.182e-3
0.881, -2.184e-3
0.882, -2.186e-3
0.883, -2.188e-3
0.884, -2.190e-3
0.885, -2.192e-3
0.886, -2.195e-3
0.887, -2.197e-3
0.888, -2.199e-3
0.889, -2.201e-3
0.890, -2.204e-3
0.891, -2.206e-3
0.892, -2.209e-3
0.893, -2.211e-3
0.894, -2.214e-3
0.895, -2.216e-3
0.896, -2.219e-3
0.897, -2.221e-3
0.898, -2.224e-3
0.899, -2.227e-3
0.900, -2.230e-3
0.901, -2.232e-3
0.902, -2.235e-3
0.903, -2.238e-3
0.904, -2.241e-3
0.905, -2.244e-3
0.906, -2.247e-3
0.907, -2.250e-3
0.908, -2.253e-3
0.909, -2.255e-3
0.910, -2.259e-3
0.911, -2.262e-3
0.912, -2.265e-3
0.913, -2.269e-3
0.914, -2.272e-3
0.915, -2.276e-3
0.916, -2.279e-3
0.917, -2.283e-3
0.918, -2.286e-3
0.919, -2.289e-3
0.920, -2.292e-3
0.921, -2.296e-3
0.922, -2.301e-3
0.923, -2.304e-3
0.924, -2.308e-3
0.925, -2.311e-3
0.926, -2.315e-3
0.927, -2.319e-3
0.928, -2.322e-3
0.929, -2.326e-3
0.930, -2.329e-3
0.931, -2.333e-3
0.932, -2.337e-3
0.933, -2.341e-3
0.934, -2.345e-3
0.935, -2.348e-3
0.936, -2.352e-3
0.937, -2.356e-3
0.938, -2.360e-3
0.939, -2.364e-3
0.940, -2.368e-3
0.941, -2.373e-3
0.942, -2.377e-3
0.943, -2.381e-3
0.944, -2.385e-3
0.945, -2.389e-3
0.946, -2.393e-3
0.947, -2.398e-3
0.948, -2.402e-3
0.949, -2.406e-3
0.950, -2.411e-3
0.951, -2.415e-3
0.952, -2.419e-3
0.953, -2.424e-3
0.954, -2.428e-3
0.955, -2.432e-3
0.956, -2.437e-3
0.957, -2.441e-3
0.958, -2.446e-3
0.959, -2.450e-3
0.960, -2.455e-3
0.961, -2.459e-3
0.962, -2.464e-3
0.963, -2.468e-3
0.964, -2.473e-3
0.965, -2.477e-3
0.966, -2.482e-3
0.967, -2.487e-3
0.968, -2.491e-3
0.969, -2.496e-3
0.970, -2.501e-3
0.971, -2.505e-3
0.972, -2.510e-3
0.973, -2.515e-3
0.974, -2.520e-3
0.975, -2.525e-3
0.976, -2.529e-3
0.977, -2.534e-3
0.978, -2.539e-3
0.979, -2.544e-3
0.980, -2.549e-3
0.981, -2.554e-3
0.982, -2.559e-3
0.983, -2.564e-3
0.984, -2.568e-3
0.985, -2.573e-3
0.986, -2.578e-3
0.987, -2.583e-3
0.988, -2.588e-3
0.989, -2.592e-3
0.990, -2.598e-3
0.991, -2.603e-3
0.992, -2.608e-3
0.993, -2.613e-3
0.994, -2.618e-3
0.995, -2.623e-3
0.996, -2.628e-3
0.997, -2.633e-3
0.998, -2.638e-3
0.999, -2.643e-3
1.000, -2.648e-3
1.001, -2.653e-3
1.002, -2.658e-3
1.003, -2.663e-3
1.004, -2.668e-3
1.005, -2.673e-3
1.006, -2.678e-3
1.007, -2.683e-3
1.008, -2.688e-3
1.009, -2.693e-3
1.010, -2.698e-3
1.011, -2.703e-3
1.012, -2.709e-3
1.013, -2.713e-3
1.014, -2.718e-3
1.015, -2.724e-3
1.016, -2.728e-3
1.017, -2.734e-3
1.018, -2.739e-3
1.019, -2.744e-3
1.020, -2.749e-3
1.021, -2.754e-3
1.022, -2.760e-3
1.023, -2.765e-3
1.024, -2.770e-3
1.025, -2.775e-3
1.026, -2.781e-3
1.027, -2.786e-3
1.028, -2.791e-3
1.029, -2.796e-3
1.030, -2.802e-3
1.031, -2.807e-3
1.032, -2.812e-3
1.033, -2.817e-3
1.034, -2.822e-3
1.035, -2.827e-3
1.036, -2.833e-3
1.037, -2.838e-3
1.038, -2.843e-3
1.039, -2.849e-3
1.040, -2.854e-3
1.041, -2.859e-3
1.042, -2.864e-3
1.043, -2.869e-3
1.044, -2.875e-3
1.045, -2.880e-3
1.046, -2.885e-3
1.047, -2.891e-3
1.048, -2.896e-3
1.049, -2.902e-3
1.050, -2.907e-3
1.051, -2.912e-3
1.052, -2.918e-3
1.053, -2.923e-3
1.054, -2.928e-3
1.055, -2.934e-3
1.056, -2.939e-3
1.057, -2.945e-3
1.058, -2.950e-3
1.059, -2.956e-3
1.060, -2.961e-3
1.061, -2.966e-3
1.062, -2.971e-3
1.063, -2.977e-3
1.064, -2.982e-3
1.065, -2.988e-3
1.066, -2.993e-3
1.067, -2.998e-3
1.068, -3.004e-3
1.069, -3.010e-3
1.070, -3.015e-3
1.071, -3.021e-3
1.072, -3.027e-3
1.073, -3.033e-3
1.074, -3.038e-3
1.075, -3.044e-3
1.076, -3.050e-3
1.077, -3.056e-3
1.078, -3.062e-3
1.079, -3.068e-3
1.080, -3.073e-3
1.081, -3.079e-3
1.082, -3.085e-3
1.083, -3.091e-3
1.084, -3.097e-3
1.085, -3.102e-3
1.086, -3.108e-3
1.087, -3.114e-3
1.088, -3.120e-3
1.089, -3.126e-3
1.090, -3.132e-3
1.091, -3.138e-3
1.092, -3.144e-3
1.093, -3.150e-3
1.094, -3.156e-3
1.095, -3.162e-3
1.096, -3.169e-3
1.097, -3.175e-3
1.098, -3.181e-3
1.099, -3.187e-3
1.100, -3.140e-3
1.099, -2.985e-3
1.098, -2.833e-3
1.097, -2.688e-3
1.096, -2.548e-3
1.095, -2.414e-3
1.094, -2.285e-3
1.093, -2.160e-3
1.092, -2.040e-3
1.091, -1.924e-3
1.090, -1.813e-3
1.089, -1.705e-3
1.088, -1.600e-3
1.087, -1.498e-3
1.086, -1.399e-3
1.085, -1.304e-3
1.084, -1.211e-3
1.083, -1.122e-3
1.082, -1.034e-3
1.081, -9.492e-4
1.080, -8.675e-4
1.079, -7.875e-4
1.078, -7.099e-4
1.077, -6.336e-4
1.076, -5.603e-4
1.075, -4.891e-4
1.074, -4.199e-4
1.073, -3.527e-4
1.072, -2.888e-4
1.071, -2.251e-4
1.070, -1.633e-4
1.069, -1.031e-4
1.068, -4.450e-5
1.067, 1.243e-5
1.066, 6.797e-5
1.065, 1.228e-4
1.064, 1.752e-4
1.063, 2.263e-4
1.062, 2.757e-4
1.061, 3.238e-4
1.060, 3.710e-4
1.059, 4.164e-4
1.058, 4.609e-4
1.057, 5.044e-4
1.056, 5.469e-4
1.055, 5.882e-4
1.054, 6.279e-4
1.053, 6.666e-4
1.052, 7.044e-4
1.051, 7.410e-4
1.050, 7.772e-4
1.049, 8.123e-4
1.048, 8.462e-4
1.047, 8.801e-4
1.046, 9.125e-4
1.045, 9.440e-4
1.044, 9.745e-4
1.043, 1.004e-3
1.042, 1.033e-3
1.041, 1.061e-3
1.040, 1.088e-3
1.039, 1.115e-3
1.038, 1.141e-3
1.037, 1.166e-3
1.036, 1.190e-3
1.035, 1.214e-3
1.034, 1.237e-3
1.033, 1.259e-3
1.032, 1.281e-3
1.031, 1.302e-3
1.030, 1.323e-3
1.029, 1.344e-3
1.028, 1.363e-3
1.027, 1.382e-3
1.026, 1.401e-3
1.025, 1.419e-3
1.024, 1.437e-3
1.023, 1.455e-3
1.022, 1.471e-3
1.021, 1.487e-3
1.020, 1.503e-3
1.019, 1.518e-3
1.018, 1.533e-3
1.017, 1.548e-3
1.016, 1.562e-3
1.015, 1.576e-3
1.014, 1.589e-3
1.013, 1.603e-3
1.012, 1.616e-3
1.011, 1.627e-3
1.010, 1.640e-3
1.009, 1.652e-3
1.008, 1.664e-3
1.007, 1.675e-3
1.006, 1.686e-3
1.005, 1.697e-3
1.004, 1.707e-3
1.003, 1.717e-3
1.002, 1.727e-3
1.001, 1.737e-3
1.000, 1.746e-3
0.999, 1.755e-3
0.998, 1.763e-3
0.997, 1.772e-3
0.996, 1.781e-3
0.995, 1.789e-3
0.994, 1.797e-3
0.993, 1.804e-3
0.992, 1.812e-3
0.991, 1.819e-3
0.990, 1.826e-3
0.989, 1.833e-3
0.988, 1.840e-3
0.987, 1.846e-3
0.986, 1.852e-3
0.985, 1.858e-3
0.984, 1.864e-3
0.983, 1.871e-3
0.982, 1.876e-3
0.981, 1.882e-3
0.980, 1.887e-3
0.979, 1.892e-3
0.978, 1.898e-3
0.977, 1.903e-3
0.976, 1.908e-3
0.975, 1.913e-3
0.974, 1.917e-3
0.973, 1.922e-3
0.972, 1.927e-3
0.971, 1.931e-3
0.970, 1.935e-3
0.969, 1.939e-3
0.968, 1.943e-3
0.967, 1.947e-3
0.966, 1.951e-3
0.965, 1.955e-3
0.964, 1.958e-3
0.963, 1.962e-3
0.962, 1.965e-3
0.961, 1.968e-3
0.960, 1.971e-3
0.959, 1.975e-3
0.958, 1.977e-3
0.957, 1.980e-3
0.956, 1.983e-3
0.955, 1.985e-3
0.954, 1.988e-3
0.953, 1.991e-3
0.952, 1.993e-3
0.951, 1.996e-3
0.950, 1.998e-3
0.949, 2.000e-3
0.948, 2.002e-3
0.947, 2.004e-3
0.946, 2.006e-3
0.945, 2.008e-3
0.944, 2.010e-3
0.943, 2.011e-3
0.942, 2.013e-3
0.941, 2.014e-3
0.940, 2.016e-3
0.939, 2.017e-3
0.938, 2.018e-3
0.937, 2.020e-3
0.936, 2.021e-3
0.935, 2.022e-3
0.934, 2.023e-3
0.933, 2.024e-3
0.932, 2.025e-3
0.931, 2.025e-3
0.930, 2.026e-3
0.929, 2.027e-3
0.928, 2.027e-3
0.927, 2.028e-3
0.926, 2.028e-3
0.925, 2.029e-3
0.924, 2.029e-3
0.923, 2.029e-3
0.922, 2.030e-3
0.921, 2.030e-3
0.920, 2.030e-3
0.919, 2.030e-3
0.918, 2.030e-3
0.917, 2.030e-3
0.916, 2.030e-3
0.915, 2.030e-3
0.914, 2.030e-3
0.913, 2.029e-3
0.912, 2.029e-3
0.911, 2.028e-3
0.910, 2.027e-3
0.909, 2.027e-3
0.908, 2.026e-3
0.907, 2.025e-3
0.906, 2.024e-3
0.905, 2.023e-3
0.904, 2.022e-3
0.903, 2.021e-3
0.902, 2.020e-3
0.901, 2.019e-3
0.900, 2.018e-3
0.899, 2.017e-3
0.898, 2.016e-3
0.897, 2.014e-3
0.896, 2.013e-3
0.895, 2.012e-3
0.894, 2.010e-3
0.893, 2.009e-3
0.892, 2.007e-3
0.891, 2.006e-3
0.890, 2.004e-3
0.889, 2.003e-3
0.888, 2.001e-3
0.887, 1.999e-3
0.886, 1.997e-3
0.885, 1.995e-3
0.884, 1.993e-3
0.883, 1.991e-3
0.882, 1.989e-3
0.881, 1.987e-3
0.880, 1.985e-3
0.879, 1.983e-3
0.878, 1.981e-3
0.877, 1.979e-3
0.876, 1.977e-3
0.875, 1.974e-3
0.874, 1.972e-3
0.873, 1.970e-3
0.872, 1.967e-3
0.871, 1.965e-3
0.870, 1.963e-3
0.869, 1.960e-3
0.868, 1.958e-3
0.867, 1.955e-3
0.866, 1.953e-3
0.865, 1.950e-3
0.864, 1.947e-3
0.863, 1.945e-3
0.862, 1.942e-3
0.861, 1.939e-3
0.860, 1.937e-3
0.859, 1.934e-3
0.858, 1.931e-3
0.857, 1.928e-3
0.856, 1.925e-3
0.855, 1.923e-3
0.854, 1.920e-3
0.853, 1.917e-3
0.852, 1.914e-3
0.851, 1.911e-3
0.850, 1.909e-3
0.849, 1.906e-3
0.848, 1.902e-3
0.847, 1.900e-3
0.846, 1.897e-3
0.845, 1.894e-3
0.844, 1.891e-3
0.843, 1.888e-3
0.842, 1.886e-3
0.841, 1.883e-3
0.840, 1.880e-3
0.839, 1.877e-3
0.838, 1.874e-3
0.837, 1.871e-3
0.836, 1.868e-3
0.835, 1.865e-3
0.834, 1.862e-3
0.833, 1.859e-3
0.832, 1.856e-3
0.831, 1.854e-3
0.830, 1.851e-3
0.829, 1.848e-3
0.828, 1.845e-3
0.827, 1.842e-3
0.826, 1.840e-3
0.825, 1.837e-3
0.824, 1.834e-3
0.823, 1.832e-3
0.822, 1.829e-3
0.821, 1.826e-3
0.820, 1.824e-3
0.819, 1.823e-3
0.818, 1.820e-3
0.817, 1.817e-3
0.816, 1.815e-3
0.815, 1.812e-3
0.814, 1.810e-3
0.813, 1.807e-3
0.812, 1.805e-3
0.811, 1.802e-3
0.810, 1.799e-3
0.809, 1.797e-3
0.808, 1.794e-3
0.807, 1.792e-3
0.806, 1.789e-3
0.805, 1.787e-3
0.804, 1.785e-3
0.803, 1.782e-3
0.802, 1.780e-3
0.801, 1.778e-3
0.800, 1.776e-3
0.799, 1.774e-3
0.798, 1.771e-3
0.797, 1.769e-3
0.796, 1.767e-3
0.795, 1.765e-3
0.794, 1.763e-3
0.793, 1.761e-3
0.792, 1.759e-3
0.791, 1.757e-3
0.790, 1.755e-3
0.789, 1.753e-3
0.788, 1.752e-3
0.787, 1.750e-3
0.786, 1.748e-3
0.785, 1.746e-3
0.784, 1.744e-3
0.783, 1.742e-3
0.782, 1.741e-3
0.781, 1.739e-3
0.780, 1.737e-3
0.779, 1.735e-3
0.778, 1.734e-3
0.777, 1.732e-3
0.776, 1.731e-3
0.775, 1.730e-3
0.774, 1.728e-3
0.773, 1.727e-3
0.772, 1.725e-3
0.771, 1.724e-3
0.770, 1.723e-3
0.769, 1.721e-3
0.768, 1.720e-3
0.767, 1.719e-3
0.766, 1.718e-3
0.765, 1.716e-3
0.764, 1.715e-3
0.763, 1.714e-3
0.762, 1.713e-3
0.761, 1.712e-3
0.760, 1.711e-3
0.759, 1.710e-3
0.758, 1.708e-3
0.757, 1.707e-3
0.756, 1.706e-3
0.755, 1.705e-3
0.754, 1.704e-3
0.753, 1.703e-3
0.752, 1.702e-3
0.751, 1.701e-3
0.750, 1.700e-3
0.749, 1.700e-3
0.748, 1.699e-3
0.747, 1.698e-3
0.746, 1.697e-3
0.745, 1.697e-3
0.744, 1.696e-3
0.743, 1.695e-3
0.742, 1.695e-3
0.741, 1.694e-3
0.740, 1.693e-3
0.739, 1.692e-3
0.738, 1.692e-3
0.737, 1.691e-3
0.736, 1.691e-3
0.735, 1.691e-3
0.734, 1.690e-3
0.733, 1.690e-3
0.732, 1.689e-3
0.731, 1.688e-3
0.730, 1.688e-3
0.729, 1.688e-3
0.728, 1.687e-3
0.727, 1.687e-3
0.726, 1.686e-3
0.725, 1.686e-3
0.724, 1.686e-3
0.723, 1.686e-3
0.722, 1.685e-3
0.721, 1.685e-3
0.720, 1.685e-3
0.719, 1.685e-3
0.718, 1.685e-3
0.717, 1.685e-3
0.716, 1.686e-3
0.715, 1.685e-3
0.714, 1.685e-3
0.713, 1.685e-3
0.712, 1.685e-3
0.711, 1.685e-3
0.710, 1.685e-3
0.709, 1.685e-3
0.708, 1.685e-3
0.707, 1.685e-3
0.706, 1.686e-3
0.705, 1.686e-3
0.704, 1.686e-3
0.703, 1.686e-3
0.702, 1.686e-3
0.701, 1.686e-3
0.700, 1.687e-3
0.699, 1.687e-3
0.698, 1.687e-3
0.697, 1.688e-3
0.696, 1.688e-3
0.695, 1.689e-3
0.694, 1.689e-3
0.693, 1.689e-3
0.692, 1.690e-3
0.691, 1.690e-3
0.690, 1.691e-3
0.689, 1.691e-3
0.688, 1.692e-3
0.687, 1.692e-3
0.686, 1.693e-3
0.685, 1.693e-3
0.684, 1.694e-3
0.683, 1.695e-3
0.682, 1.695e-3
0.681, 1.696e-3
0.680, 1.696e-3
0.679, 1.697e-3
0.678, 1.698e-3
0.677, 1.699e-3
0.676, 1.699e-3
0.675, 1.700e-3
0.674, 1.701e-3
0.673, 1.701e-3
0.672, 1.702e-3
0.671, 1.703e-3
0.670, 1.704e-3
0.669, 1.705e-3
0.668, 1.706e-3
0.667, 1.707e-3
0.666, 1.708e-3
0.665, 1.709e-3
0.664, 1.710e-3
0.663, 1.711e-3
0.662, 1.712e-3
0.661, 1.713e-3
0.660, 1.714e-3
0.659, 1.715e-3
0.658, 1.716e-3
0.657, 1.717e-3
0.656, 1.718e-3
0.655, 1.719e-3
0.654, 1.720e-3
0.653, 1.721e-3
0.652, 1.722e-3
0.651, 1.723e-3
0.650, 1.724e-3
0.649, 1.725e-3
0.648, 1.726e-3
0.647, 1.727e-3
0.646, 1.728e-3
0.645, 1.730e-3
0.644, 1.731e-3
0.643, 1.732e-3
0.642, 1.733e-3
0.641, 1.734e-3
0.640, 1.736e-3
0.639, 1.737e-3
0.638, 1.738e-3
0.637, 1.740e-3
0.636, 1.741e-3
0.635, 1.742e-3
0.634, 1.743e-3
0.633, 1.745e-3
0.632, 1.746e-3
0.631, 1.747e-3
0.630, 1.748e-3
0.629, 1.750e-3
0.628, 1.751e-3
0.627, 1.752e-3
0.626, 1.753e-3
0.625, 1.755e-3
0.624, 1.756e-3
0.623, 1.757e-3
0.622, 1.758e-3
0.621, 1.760e-3
0.620, 1.761e-3
0.619, 1.763e-3
0.618, 1.764e-3
0.617, 1.765e-3
0.616, 1.767e-3
0.615, 1.768e-3
0.614, 1.770e-3
0.613, 1.771e-3
0.612, 1.773e-3
0.611, 1.774e-3
0.610, 1.776e-3
0.609, 1.777e-3
0.608, 1.779e-3
0.607, 1.781e-3
0.606, 1.782e-3
0.605, 1.783e-3
0.604, 1.785e-3
0.603, 1.786e-3
0.602, 1.788e-3
0.601, 1.789e-3
0.600, 1.791e-3
0.599, 1.792e-3
0.598, 1.794e-3
0.597, 1.795e-3
0.596, 1.797e-3
0.595, 1.799e-3
0.594, 1.800e-3
0.593, 1.802e-3
0.592, 1.803e-3
0.591, 1.805e-3
0.590, 1.807e-3
0.589, 1.809e-3
0.588, 1.810e-3
0.587, 1.812e-3
0.586, 1.813e-3
0.585, 1.815e-3
0.584, 1.816e-3
0.583, 1.818e-3
0.582, 1.820e-3
0.581, 1.822e-3
0.580, 1.824e-3
0.579, 1.825e-3
0.578, 1.827e-3
0.577, 1.828e-3
0.576, 1.830e-3
0.575, 1.832e-3
0.574, 1.833e-3
0.573, 1.835e-3
0.572, 1.837e-3
0.571, 1.838e-3
0.570, 1.840e-3
0.569, 1.842e-3
0.568, 1.844e-3
0.567, 1.845e-3
0.566, 1.847e-3
0.565, 1.849e-3
0.564, 1.851e-3
0.563, 1.852e-3
0.562, 1.854e-3
0.561, 1.856e-3
0.560, 1.857e-3
0.559, 1.859e-3
0.558, 1.861e-3
0.557, 1.863e-3
0.556, 1.865e-3
0.555, 1.866e-3
0.554, 1.868e-3
0.553, 1.870e-3
0.552, 1.872e-3
0.551, 1.874e-3
0.550, 1.875e-3
0.549, 1.877e-3
0.548, 1.879e-3
0.547, 1.880e-3
0.546, 1.882e-3
0.545, 1.884e-3
0.544, 1.886e-3
0.543, 1.888e-3
0.542, 1.889e-3
0.541, 1.891e-3
0.540, 1.893e-3
0.539, 1.894e-3
0.538, 1.896e-3
0.537, 1.898e-3
0.536, 1.900e-3
0.535, 1.902e-3
0.534, 1.903e-3
0.533, 1.905e-3
0.532, 1.907e-3
0.531, 1.909e-3
0.530, 1.911e-3
0.529, 1.913e-3
0.528, 1.914e-3
0.527, 1.916e-3
0.526, 1.917e-3
0.525, 1.919e-3
0.524, 1.921e-3
0.523, 1.923e-3
0.522, 1.925e-3
0.521, 1.926e-3
0.520, 1.928e-3
0.519, 1.930e-3
0.518, 1.931e-3
0.517, 1.933e-3
0.516, 1.935e-3
0.515, 1.936e-3
0.514, 1.938e-3
0.513, 1.940e-3
0.512, 1.942e-3
0.511, 1.944e-3
0.510, 1.946e-3
0.509, 1.947e-3
0.508, 1.949e-3
0.507, 1.950e-3
0.506, 1.952e-3
0.505, 1.954e-3
0.504, 1.955e-3
0.503, 1.957e-3
0.502, 1.958e-3
0.501, 1.960e-3
0.500, 1.962e-3
0.499, 1.963e-3
0.498, 1.964e-3
0.497, 1.966e-3
0.496, 1.967e-3
0.495, 1.969e-3
0.494, 1.970e-3
0.493, 1.972e-3
0.492, 1.973e-3
0.491, 1.975e-3
0.490, 1.976e-3
0.489, 1.977e-3
0.488, 1.979e-3
0.487, 1.980e-3
0.486, 1.982e-3
0.485, 1.983e-3
0.484, 1.985e-3
0.483, 1.986e-3
0.482, 1.988e-3
0.481, 1.989e-3
0.480, 1.991e-3
0.479, 1.992e-3
0.478, 1.993e-3
0.477, 1.995e-3
0.476, 1.996e-3
0.475, 1.997e-3
0.474, 1.999e-3
0.473, 2.000e-3
0.472, 2.001e-3
0.471, 2.003e-3
0.470, 2.004e-3
0.469, 2.005e-3
0.468, 2.006e-3
0.467, 2.008e-3
0.466, 2.009e-3
0.465, 2.010e-3
0.464, 2.012e-3
0.463, 2.013e-3
0.462, 2.014e-3
0.461, 2.015e-3
0.460, 2.017e-3
0.459, 2.018e-3
0.458, 2.019e-3
0.457, 2.021e-3
0.456, 2.022e-3
0.455, 2.023e-3
0.454, 2.024e-3
0.453, 2.026e-3
0.452, 2.027e-3
0.451, 2.028e-3
0.450, 2.029e-3
0.449, 2.030e-3
0.448, 2.031e-3
0.447, 2.033e-3
0.446, 2.034e-3
0.445, 2.035e-3
0.444, 2.036e-3
0.443, 2.037e-3
0.442, 2.039e-3
0.441, 2.040e-3
0.440, 2.041e-3
0.439, 2.042e-3
0.438, 2.043e-3
0.437, 2.045e-3
0.436, 2.046e-3
0.435, 2.047e-3
0.434, 2.049e-3
0.433, 2.050e-3
0.432, 2.051e-3
0.431, 2.052e-3
0.430, 2.053e-3
0.429, 2.054e-3
0.428, 2.056e-3
0.427, 2.057e-3
0.426, 2.058e-3
0.425, 2.060e-3
0.424, 2.061e-3
0.423, 2.062e-3
0.422, 2.063e-3
0.421, 2.065e-3
0.420, 2.066e-3
0.419, 2.067e-3
0.418, 2.068e-3
0.417, 2.069e-3
0.416, 2.071e-3
0.415, 2.072e-3
0.414, 2.074e-3
0.413, 2.075e-3
0.412, 2.076e-3
0.411, 2.078e-3
0.410, 2.079e-3
0.409, 2.081e-3
0.408, 2.082e-3
0.407, 2.083e-3
0.406, 2.084e-3
0.405, 2.086e-3
0.404, 2.087e-3
0.403, 2.089e-3
0.402, 2.090e-3
0.401, 2.091e-3
0.400, 2.093e-3
0.399, 2.094e-3
0.398, 2.095e-3
0.397, 2.097e-3
0.396, 2.098e-3
0.395, 2.100e-3
0.394, 2.101e-3
0.393, 2.103e-3
0.392, 2.104e-3
0.391, 2.105e-3
0.390, 2.107e-3
0.389, 2.108e-3
0.388, 2.110e-3
0.387, 2.111e-3
0.386, 2.112e-3
0.385, 2.114e-3
0.384, 2.115e-3
0.383, 2.117e-3
0.382, 2.118e-3
0.381, 2.120e-3
0.380, 2.122e-3
0.379, 2.123e-3
0.378, 2.125e-3
0.377, 2.126e-3
0.376, 2.128e-3
0.375, 2.129e-3
0.374, 2.131e-3
0.373, 2.132e-3
0.372, 2.134e-3
0.371, 2.135e-3
0.370, 2.137e-3
0.369, 2.138e-3
0.368, 2.140e-3
0.367, 2.141e-3
0.366, 2.143e-3
0.365, 2.144e-3
0.364, 2.146e-3
0.363, 2.147e-3
0.362, 2.149e-3
0.361, 2.150e-3
0.360, 2.152e-3
0.359, 2.153e-3
0.358, 2.155e-3
0.357, 2.157e-3
0.356, 2.158e-3
0.355, 2.159e-3
0.354, 2.161e-3
0.353, 2.162e-3
0.352, 2.164e-3
0.351, 2.165e-3
0.350, 2.167e-3
0.349, 2.168e-3
0.348, 2.169e-3
0.347, 2.170e-3
0.346, 2.172e-3
0.345, 2.173e-3
0.344, 2.175e-3
0.343, 2.176e-3
0.342, 2.177e-3
0.341, 2.179e-3
0.340, 2.180e-3
0.339, 2.181e-3
0.338, 2.183e-3
0.337, 2.184e-3
0.336, 2.185e-3
0.335, 2.186e-3
0.334, 2.188e-3
0.333, 2.189e-3
0.332, 2.190e-3
0.331, 2.191e-3
0.330, 2.193e-3
0.329, 2.194e-3
0.328, 2.195e-3
0.327, 2.196e-3
0.326, 2.197e-3
0.325, 2.198e-3
0.324, 2.199e-3
0.323, 2.200e-3
0.322, 2.201e-3
0.321, 2.202e-3
0.320, 2.202e-3
0.319, 2.203e-3
0.318, 2.204e-3
0.317, 2.205e-3
0.316, 2.206e-3
0.315, 2.206e-3
0.314, 2.207e-3
0.313, 2.208e-3
0.312, 2.209e-3
0.311, 2.209e-3
0.310, 2.210e-3
0.309, 2.210e-3
0.308, 2.211e-3
0.307, 2.212e-3
0.306, 2.213e-3
0.305, 2.213e-3
0.304, 2.213e-3
0.303, 2.214e-3
0.302, 2.214e-3
0.301, 2.215e-3
0.300, 2.215e-3
0.299, 2.215e-3
0.298, 2.215e-3
0.297, 2.215e-3
0.296, 2.215e-3
0.295, 2.216e-3
0.294, 2.216e-3
0.293, 2.216e-3
0.292, 2.216e-3
0.291, 2.216e-3
0.290, 2.216e-3
0.289, 2.216e-3
0.288, 2.216e-3
0.287, 2.216e-3
0.286, 2.215e-3
0.285, 2.215e-3
0.284, 2.215e-3
0.283, 2.214e-3
0.282, 2.214e-3
0.281, 2.214e-3
0.280, 2.213e-3
0.279, 2.213e-3
0.278, 2.212e-3
0.277, 2.212e-3
0.276, 2.212e-3
0.275, 2.211e-3
0.274, 2.211e-3
0.273, 2.210e-3
0.272, 2.209e-3
0.271, 2.209e-3
0.270, 2.208e-3
0.269, 2.207e-3
0.268, 2.207e-3
0.267, 2.206e-3
0.266, 2.205e-3
0.265, 2.205e-3
0.264, 2.204e-3
0.263, 2.203e-3
0.262, 2.202e-3
0.261, 2.201e-3
0.260, 2.200e-3
0.259, 2.199e-3
0.258, 2.198e-3
0.257, 2.197e-3
0.256, 2.196e-3
0.255, 2.195e-3
0.254, 2.194e-3
0.253, 2.193e-3
0.252, 2.192e-3
0.251, 2.191e-3
0.250, 2.190e-3
0.249, 2.189e-3
0.248, 2.187e-3
0.247, 2.186e-3
0.246, 2.184e-3
0.245, 2.183e-3
0.244, 2.182e-3
0.243, 2.180e-3
0.242, 2.179e-3
0.241, 2.178e-3
0.240, 2.176e-3
0.239, 2.175e-3
0.238, 2.173e-3
0.237, 2.172e-3
0.236, 2.171e-3
0.235, 2.169e-3
0.234, 2.168e-3
0.233, 2.167e-3
0.232, 2.165e-3
0.231, 2.164e-3
0.230, 2.162e-3
0.229, 2.161e-3
0.228, 2.160e-3
0.227, 2.158e-3
0.226, 2.157e-3
0.225, 2.155e-3
0.224, 2.154e-3
0.223, 2.153e-3
0.222, 2.151e-3
0.221, 2.149e-3
0.220, 2.148e-3
0.219, 2.146e-3
0.218, 2.145e-3
0.217, 2.144e-3
0.216, 2.142e-3
0.215, 2.141e-3
0.214, 2.139e-3
0.213, 2.138e-3
0.212, 2.137e-3
0.211, 2.135e-3
0.210, 2.134e-3
0.209, 2.133e-3
0.208, 2.131e-3
0.207, 2.130e-3
0.206, 2.129e-3
0.205, 2.128e-3
0.204, 2.127e-3
0.203, 2.126e-3
0.202, 2.124e-3
0.201, 2.123e-3
0.200, 2.122e-3
0.199, 2.121e-3
0.198, 2.120e-3
0.197, 2.119e-3
0.196, 2.118e-3
0.195, 2.117e-3
0.194, 2.116e-3
0.193, 2.115e-3
0.192, 2.114e-3
0.191, 2.113e-3
0.190, 2.112e-3
0.189, 2.111e-3
0.188, 2.110e-3
0.187, 2.109e-3
0.186, 2.109e-3
0.185, 2.108e-3
0.184, 2.107e-3
0.183, 2.107e-3
0.182, 2.106e-3
0.181, 2.105e-3
0.180, 2.105e-3
0.179, 2.104e-3
0.178, 2.104e-3
0.177, 2.103e-3
0.176, 2.102e-3
0.175, 2.102e-3
0.174, 2.101e-3
0.173, 2.101e-3
0.172, 2.101e-3
0.171, 2.100e-3
0.170, 2.100e-3
0.169, 2.100e-3
0.168, 2.100e-3
0.167, 2.100e-3
0.166, 2.099e-3
0.165, 2.099e-3
0.164, 2.099e-3
0.163, 2.099e-3
0.162, 2.099e-3
0.161, 2.099e-3
0.160, 2.099e-3
0.159, 2.099e-3
0.158, 2.099e-3
0.157, 2.099e-3
0.156, 2.100e-3
0.155, 2.100e-3
0.154, 2.101e-3
0.153, 2.101e-3
0.152, 2.101e-3
0.151, 2.102e-3
0.150, 2.102e-3
0.149, 2.103e-3
0.148, 2.103e-3
0.147, 2.104e-3
0.146, 2.104e-3
0.145, 2.105e-3
0.144, 2.106e-3
0.143, 2.107e-3
0.142, 2.107e-3
0.141, 2.108e-3
0.140, 2.109e-3
0.139, 2.109e-3
0.138, 2.110e-3
0.137, 2.111e-3
0.136, 2.112e-3
0.135, 2.113e-3
0.134, 2.114e-3
0.133, 2.115e-3
0.132, 2.117e-3
0.131, 2.118e-3
0.130, 2.119e-3
0.129, 2.120e-3
0.128, 2.122e-3
0.127, 2.123e-3
0.126, 2.124e-3
0.125, 2.126e-3
0.124, 2.127e-3
0.123, 2.128e-3
0.122, 2.130e-3
0.121, 2.132e-3
0.120, 2.133e-3
0.119, 2.135e-3
0.118, 2.136e-3
0.117, 2.138e-3
0.116, 2.140e-3
0.115, 2.141e-3
0.114, 2.143e-3
0.113, 2.145e-3
0.112, 2.147e-3
0.111, 2.150e-3
0.110, 2.151e-3
0.109, 2.154e-3
0.108, 2.156e-3
0.107, 2.158e-3
0.106, 2.160e-3
0.105, 2.162e-3
0.104, 2.165e-3
0.103, 2.167e-3
0.102, 2.170e-3
0.101, 2.172e-3
0.100, 2.175e-3
0.099, 2.177e-3
0.098, 2.180e-3
0.097, 2.182e-3
0.096, 2.185e-3
0.095, 2.188e-3
0.094, 2.190e-3
0.093, 2.193e-3
0.092, 2.196e-3
0.091, 2.199e-3
0.090, 2.202e-3
0.089, 2.205e-3
0.088, 2.208e-3
0.087, 2.211e-3
0.086, 2.214e-3
0.085, 2.217e-3
0.084, 2.221e-3
0.083, 2.224e-3
0.082, 2.228e-3
0.081, 2.231e-3
0.080, 2.234e-3
0.079, 2.238e-3
0.078, 2.241e-3
0.077, 2.245e-3
0.076, 2.248e-3
0.075, 2.252e-3
0.074, 2.256e-3
0.073, 2.259e-3
0.072, 2.263e-3
0.071, 2.267e-3
0.070, 2.271e-3
0.069, 2.275e-3
0.068, 2.279e-3
0.067, 2.283e-3
0.066, 2.288e-3
0.065, 2.292e-3
0.064, 2.297e-3
0.063, 2.301e-3
0.062, 2.305e-3
0.061, 2.310e-3
0.060, 2.315e-3
0.059, 2.319e-3
0.058, 2.324e-3
0.057, 2.329e-3
0.056, 2.334e-3
0.055, 2.339e-3
0.054, 2.344e-3
0.053, 2.349e-3
0.052, 2.354e-3
0.051, 2.359e-3
0.050, 2.365e-3
0.049, 2.370e-3
0.048, 2.375e-3
0.047, 2.380e-3
0.046, 2.386e-3
0.045, 2.391e-3
0.044, 2.397e-3
0.043, 2.403e-3
0.042, 2.408e-3
0.041, 2.414e-3
0.040, 2.420e-3
0.039, 2.426e-3
0.038, 2.432e-3
0.037, 2.438e-3
0.036, 2.445e-3
0.035, 2.451e-3
0.034, 2.457e-3
0.033, 2.463e-3
0.032, 2.470e-3
0.031, 2.477e-3
0.030, 2.484e-3
0.029, 2.490e-3
0.028, 2.497e-3
0.027, 2.504e-3
0.026, 2.511e-3
0.025, 2.518e-3
0.024, 2.525e-3
0.023, 2.532e-3
0.022, 2.539e-3
0.021, 2.547e-3
0.020, 2.554e-3
0.019, 2.561e-3
0.018, 2.569e-3
0.017, 2.577e-3
0.016, 2.584e-3
0.015, 2.592e-3
0.014, 2.600e-3
0.013, 2.608e-3
0.012, 2.616e-3
0.011, 2.623e-3
0.010, 2.631e-3
0.009, 2.640e-3
0.008, 2.648e-3
0.007, 2.657e-3
0.006, 2.665e-3
0.005, 2.674e-3
0.004, 2.683e-3
0.003, 2.691e-3
0.002, 2.700e-3
0.001, 2.709e-3
0.000, 2.719e-3
-0.001, 2.729e-3
-0.002, 2.738e-3
-0.003, 2.748e-3
-0.004, 2.757e-3
-0.005, 2.766e-3
-0.006, 2.776e-3
-0.007, 2.785e-3
-0.008, 2.795e-3
-0.009, 2.805e-3
-0.010, 2.814e-3
-0.011, 2.823e-3
-0.012, 2.833e-3
-0.013, 2.843e-3
-0.014, 2.853e-3
-0.015, 2.863e-3
-0.016, 2.873e-3
-0.017, 2.884e-3
-0.018, 2.894e-3
-0.019, 2.904e-3
-0.020, 2.915e-3
-0.021, 2.925e-3
-0.022, 2.936e-3
-0.023, 2.947e-3
-0.024, 2.957e-3
-0.025, 2.968e-3
-0.026, 2.980e-3
-0.027, 2.991e-3
-0.028, 3.002e-3
-0.029, 3.012e-3
-0.030, 3.024e-3
-0.031, 3.034e-3
-0.032, 3.046e-3
-0.033, 3.058e-3
-0.034, 3.069e-3
-0.035, 3.080e-3
-0.036, 3.092e-3
-0.037, 3.103e-3
-0.038, 3.115e-3
-0.039, 3.127e-3
-0.040, 3.139e-3
-0.041, 3.151e-3
-0.042, 3.162e-3
-0.043, 3.174e-3
-0.044, 3.186e-3
-0.045, 3.198e-3
-0.046, 3.211e-3
-0.047, 3.224e-3
-0.048, 3.236e-3
-0.049, 3.249e-3
-0.050, 3.261e-3
-0.051, 3.274e-3
-0.052, 3.286e-3
-0.053, 3.298e-3
-0.054, 3.311e-3
-0.055, 3.323e-3
-0.056, 3.336e-3
-0.057, 3.348e-3
-0.058, 3.361e-3
-0.059, 3.374e-3
-0.060, 3.386e-3
-0.061, 3.399e-3
-0.062, 3.412e-3
-0.063, 3.424e-3
-0.064, 3.437e-3
-0.065, 3.450e-3
-0.066, 3.462e-3
-0.067, 3.476e-3
-0.068, 3.489e-3
-0.069, 3.501e-3
-0.070, 3.514e-3
-0.071, 3.527e-3
-0.072, 3.540e-3
-0.073, 3.553e-3
-0.074, 3.566e-3
-0.075, 3.579e-3
-0.076, 3.592e-3
-0.077, 3.605e-3
-0.078, 3.619e-3
-0.079, 3.632e-3
-0.080, 3.645e-3
-0.081, 3.658e-3
-0.082, 3.671e-3
-0.083, 3.684e-3
-0.084, 3.698e-3
-0.085, 3.710e-3
-0.086, 3.723e-3
-0.087, 3.736e-3
-0.088, 3.749e-3
-0.089, 3.763e-3
-0.090, 3.776e-3
-0.091, 3.789e-3
-0.092, 3.802e-3
-0.093, 3.814e-3
-0.094, 3.827e-3
-0.095, 3.840e-3
-0.096, 3.853e-3
-0.097, 3.867e-3
-0.098, 3.880e-3
-0.099, 3.893e-3
-0.100, 3.866e-3
-0.099, 3.760e-3
-0.098, 3.658e-3
-0.097, 3.561e-3
-0.096, 3.468e-3
-0.095, 3.380e-3
-0.094, 3.295e-3
-0.093, 3.212e-3
-0.092, 3.132e-3
-0.091, 3.056e-3
-0.090, 2.981e-3
-0.089, 2.908e-3
-0.088, 2.838e-3
-0.087, 2.770e-3
-0.086, 2.703e-3
-0.085, 2.637e-3
-0.084, 2.573e-3
-0.083, 2.510e-3
-0.082, 2.447e-3
-0.081, 2.386e-3
-0.080, 2.327e-3
-0.079, 2.269e-3
-0.078, 2.212e-3
-0.077, 2.156e-3
-0.076, 2.101e-3
-0.075, 2.047e-3
-0.074, 1.994e-3
-0.073, 1.942e-3
-0.072, 1.891e-3
-0.071, 1.840e-3
-0.070, 1.791e-3
-0.069, 1.742e-3
-0.068, 1.693e-3
-0.067, 1.645e-3
-0.066, 1.598e-3
-0.065, 1.552e-3
-0.064, 1.507e-3
-0.063, 1.462e-3
-0.062, 1.418e-3
-0.061, 1.375e-3
-0.060, 1.332e-3
-0.059, 1.289e-3
-0.058, 1.248e-3
-0.057, 1.207e-3
-0.056, 1.167e-3
-0.055, 1.127e-3
-0.054, 1.087e-3
-0.053, 1.049e-3
-0.052, 1.010e-3
-0.051, 9.720e-4
-0.050, 9.344e-4
-0.049, 8.972e-4
-0.048, 8.601e-4
-0.047, 8.238e-4
-0.046, 7.883e-4
-0.045, 7.530e-4
-0.044, 7.181e-4
-0.043, 6.841e-4
-0.042, 6.506e-4
-0.041, 6.170e-4
-0.040, 5.842e-4
-0.039, 5.516e-4
-0.038, 5.192e-4
-0.037, 4.873e-4
-0.036, 4.558e-4
-0.035, 4.250e-4
-0.034, 3.943e-4
-0.033, 3.638e-4
-0.032, 3.338e-4
-0.031, 3.044e-4
-0.030, 2.753e-4
-0.029, 2.466e-4
-0.028, 2.179e-4
-0.027, 1.899e-4
-0.026, 1.620e-4
-0.025, 1.344e-4
-0.024, 1.070e-4
-0.023, 7.939e-5
-0.022, 5.264e-5
-0.021, 2.651e-5
-0.020, 4.077e-7
-0.019, -2.529e-5
-0.018, -5.055e-5
-0.017, -7.553e-5
-0.016, -9.988e-5
-0.015, -1.240e-4
-0.014, -1.481e-4
-0.013, -1.720e-4
-0.012, -1.957e-4
-0.011, -2.187e-4
-0.010, -2.417e-4
-0.009, -2.646e-4
-0.008, -2.869e-4
-0.007, -3.092e-4
-0.006, -3.299e-4
-0.005, -3.515e-4
-0.004, -3.727e-4
-0.003, -3.936e-4
-0.002, -4.147e-4
-0.001, -4.352e-4
-0.000, -4.567e-4
0.001, -4.772e-4
0.002, -4.967e-4
0.003, -5.159e-4
0.004, -5.353e-4
0.005, -5.545e-4
0.006, -5.735e-4
0.007, -5.923e-4
0.008, -6.107e-4
0.009, -6.288e-4
0.010, -6.467e-4
0.011, -6.644e-4
0.012, -6.823e-4
0.013, -6.999e-4
0.014, -7.175e-4
0.015, -7.344e-4
0.016, -7.511e-4
0.017, -7.674e-4
0.018, -7.836e-4
0.019, -7.997e-4
0.020, -8.159e-4
0.021, -8.314e-4
0.022, -8.470e-4
0.023, -8.623e-4
0.024, -8.770e-4
0.025, -8.916e-4
0.026, -9.061e-4
0.027, -9.205e-4
0.028, -9.349e-4
0.029, -9.489e-4
0.030, -9.627e-4
0.031, -9.765e-4
0.032, -9.901e-4
0.033, -1.004e-3
0.034, -1.016e-3
0.035, -1.029e-3
0.036, -1.042e-3
0.037, -1.055e-3
0.038, -1.067e-3
0.039, -1.079e-3
0.040, -1.091e-3
0.041, -1.103e-3
0.042, -1.115e-3
0.043, -1.126e-3
0.044, -1.138e-3
0.045, -1.149e-3
0.046, -1.160e-3
0.047, -1.171e-3
0.048, -1.182e-3
0.049, -1.193e-3
0.050, -1.203e-3
0.051, -1.213e-3
0.052, -1.224e-3
0.053, -1.234e-3
0.054, -1.244e-3
0.055, -1.253e-3
0.056, -1.262e-3
0.057, -1.272e-3
0.058, -1.281e-3
0.059, -1.290e-3
0.060, -1.299e-3
0.061, -1.308e-3
0.062, -1.316e-3
0.063, -1.325e-3
0.064, -1.333e-3
0.065, -1.342e-3
0.066, -1.350e-3
0.067, -1.358e-3
0.068, -1.366e-3
0.069, -1.373e-3
0.070, -1.381e-3
0.071, -1.389e-3
0.072, -1.396e-3
0.073, -1.403e-3
0.074, -1.410e-3
0.075, -1.417e-3
0.076, -1.424e-3
0.077, -1.431e-3
0.078, -1.438e-3
0.079, -1.444e-3
0.080, -1.451e-3
0.081, -1.457e-3
0.082, -1.463e-3
0.083, -1.469e-3
0.084, -1.476e-3
0.085, -1.482e-3
0.086, -1.488e-3
0.087, -1.494e-3
0.088, -1.499e-3
0.089, -1.505e-3
0.090, -1.510e-3
0.091, -1.516e-3
0.092, -1.521e-3
0.093, -1.526e-3
0.094, -1.531e-3
0.095, -1.535e-3
0.096, -1.540e-3
0.097, -1.545e-3
0.098, -1.550e-3
0.099, -1.554e-3
0.100, -1.559e-3
0.101, -1.563e-3
0.102, -1.568e-3
0.103, -1.573e-3
0.104, -1.577e-3
0.105, -1.581e-3
0.106, -1.585e-3
0.107, -1.589e-3
0.108, -1.593e-3
0.109, -1.596e-3
0.110, -1.600e-3
0.111, -1.604e-3
0.112, -1.607e-3
0.113, -1.611e-3
0.114, -1.614e-3
0.115, -1.617e-3
0.116, -1.621e-3
0.117, -1.624e-3
0.118, -1.627e-3
0.119, -1.630e-3
0.120, -1.633e-3
0.121, -1.636e-3
0.122, -1.640e-3
0.123, -1.642e-3
0.124, -1.645e-3
0.125, -1.648e-3
0.126, -1.651e-3
0.127, -1.653e-3
0.128, -1.656e-3
0.129, -1.659e-3
0.130, -1.662e-3
0.131, -1.664e-3
0.132, -1.667e-3
0.133, -1.669e-3
0.134, -1.671e-3
0.135, -1.674e-3
0.136, -1.676e-3
0.137, -1.679e-3
0.138, -1.681e-3
0.139, -1.683e-3
0.140, -1.685e-3
0.141, -1.687e-3
0.142, -1.689e-3
0.143, -1.691e-3
0.144, -1.693e-3
0.145, -1.695e-3
0.146, -1.697e-3
0.147, -1.699e-3
0.148, -1.701e-3
0.149, -1.703e-3
0.150, -1.705e-3
0.151, -1.707e-3
0.152, -1.708e-3
0.153, -1.711e-3
0.154, -1.713e-3
0.155, -1.714e-3
0.156, -1.716e-3
0.157, -1.718e-3
0.158, -1.720e-3
0.159, -1.722e-3
0.160, -1.723e-3
0.161, -1.725e-3
0.162, -1.727e-3
0.163, -1.729e-3
0.164, -1.730e-3
0.165, -1.732e-3
0.166, -1.734e-3
0.167, -1.736e-3
0.168, -1.737e-3
0.169, -1.739e-3
0.170, -1.740e-3
0.171, -1.742e-3
0.172, -1.744e-3
0.173, -1.745e-3
0.174, -1.747e-3
0.175, -1.749e-3
0.176, -1.750e-3
0.177, -1.751e-3
0.178, -1.753e-3
0.179, -1.754e-3
0.180, -1.756e-3
0.181, -1.757e-3
0.182, -1.758e-3
0.183, -1.760e-3
0.184, -1.761e-3
0.185, -1.763e-3
0.186, -1.765e-3
0.187, -1.766e-3
0.188, -1.768e-3
0.189, -1.769e-3
0.190, -1.770e-3
0.191, -1.772e-3
0.192, -1.773e-3
0.193, -1.775e-3
0.194, -1.776e-3
0.195, -1.778e-3
0.196, -1.779e-3
0.197, -1.780e-3
0.198, -1.782e-3
0.199, -1.784e-3
0.200, -1.785e-3
0.201, -1.786e-3
0.202, -1.788e-3
0.203, -1.790e-3
0.204, -1.791e-3
0.205, -1.793e-3
0.206, -1.795e-3
0.207, -1.796e-3
0.208, -1.798e-3
0.209, -1.800e-3
0.210, -1.801e-3
0.211, -1.803e-3
0.212, -1.804e-3
0.213, -1.806e-3
0.214, -1.807e-3
0.215, -1.809e-3
0.216, -1.810e-3
0.217, -1.812e-3
0.218, -1.814e-3
0.219, -1.815e-3
0.220, -1.817e-3
0.221, -1.819e-3
0.222, -1.821e-3
0.223, -1.822e-3
0.224, -1.824e-3
0.225, -1.826e-3
0.226, -1.828e-3
0.227, -1.830e-3
0.228, -1.832e-3
0.229, -1.833e-3
0.230, -1.835e-3
0.231, -1.837e-3
0.232, -1.839e-3
0.233, -1.841e-3
0.234, -1.842e-3
0.235, -1.844e-3
0.236, -1.846e-3
0.237, -1.849e-3
0.238, -1.851e-3
0.239, -1.853e-3
0.240, -1.855e-3
0.241, -1.857e-3
0.242, -1.859e-3
0.243, -1.861e-3
0.244, -1.863e-3
0.245, -1.865e-3
0.246, -1.867e-3
0.247, -1.870e-3
0.248, -1.872e-3
0.249, -1.874e-3
0.250, -1.876e-3
0.251, -1.878e-3
0.252, -1.880e-3
0.253, -1.882e-3
0.254, -1.884e-3
0.255, -1.887e-3
0.256, -1.889e-3
0.257, -1.892e-3
0.258, -1.894e-3
0.259, -1.896e-3
0.260, -1.899e-3
0.261, -1.901e-3
0.262, -1.903e-3
0.263, -1.906e-3
0.264, -1.908e-3
0.265, -1.911e-3
0.266, -1.914e-3
0.267, -1.916e-3
0.268, -1.919e-3
0.269, -1.921e-3
0.270, -1.924e-3
0.271, -1.927e-3
0.272, -1.929e-3
0.273, -1.932e-3
0.274, -1.935e-3
0.275, -1.938e-3
0.276, -1.941e-3
0.277, -1.943e-3
0.278, -1.946e-3
0.279, -1.949e-3
0.280, -1.952e-3
0.281, -1.955e-3
0.282, -1.958e-3
0.283, -1.961e-3
0.284, -1.964e-3
0.285, -1.967e-3
0.286, -1.970e-3
0.287, -1.973e-3
0.288, -1.976e-3
0.289, -1.980e-3
0.290, -1.983e-3
0.291, -1.986e-3
0.292, -1.989e-3
0.293, -1.992e-3
0.294, -1.995e-3
0.295, -1.998e-3
0.296, -2.001e-3
0.297, -2.005e-3
0.298, -2.008e-3
0.299, -2.011e-3
0.300, -2.014e-3
0.301, -2.018e-3
0.302, -2.022e-3
0.303, -2.025e-3
0.304, -2.028e-3
0.305, -2.032e-3
0.306, -2.035e-3
0.307, -2.039e-3
0.308, -2.043e-3
0.309, -2.046e-3
0.310, -2.050e-3
0.311, -2.053e-3
0.312, -2.056e-3
0.313, -2.060e-3
0.314, -2.064e-3
0.315, -2.067e-3
0.316, -2.071e-3
0.317, -2.074e-3
0.318, -2.078e-3
0.319, -2.081e-3
0.320, -2.085e-3
0.321, -2.088e-3
0.322, -2.092e-3
0.323, -2.096e-3
0.324, -2.099e-3
0.325, -2.103e-3
0.326, -2.107e-3
0.327, -2.111e-3
0.328, -2.114e-3
0.329, -2.118e-3
0.330, -2.122e-3
0.331, -2.126e-3
0.332, -2.130e-3
0.333, -2.133e-3
0.334, -2.137e-3
0.335, -2.141e-3
0.336, -2.145e-3
0.337, -2.148e-3
0.338, -2.152e-3
0.339, -2.156e-3
0.340, -2.160e-3
0.341, -2.164e-3
0.342, -2.168e-3
0.343, -2.172e-3
0.344, -2.175e-3
0.345, -2.179e-3
0.346, -2.183e-3
0.347, -2.187e-3
0.348, -2.190e-3
0.349, -2.194e-3
0.350, -2.197e-3
0.351, -2.201e-3
0.352, -2.205e-3
0.353, -2.209e-3
0.354, -2.213e-3
0.355, -2.217e-3
0.356, -2.220e-3
0.357, -2.224e-3
0.358, -2.228e-3
0.359, -2.232e-3
0.360, -2.235e-3
0.361, -2.239e-3
0.362, -2.242e-3
0.363, -2.246e-3
0.364, -2.250e-3
0.365, -2.254e-3
0.366, -2.257e-3
0.367, -2.261e-3
0.368, -2.264e-3
0.369, -2.268e-3
0.370, -2.272e-3
0.371, -2.275e-3
0.372, -2.279e-3
0.373, -2.282e-3
0.374, -2.286e-3
0.375, -2.289e-3
0.376, -2.292e-3
0.377, -2.296e-3
0.378, -2.299e-3
0.379, -2.303e-3
0.380, -2.306e-3
0.381, -2.309e-3
0.382, -2.313e-3
0.383, -2.316e-3
0.384, -2.319e-3
0.385, -2.322e-3
0.386, -2.325e-3
0.387, -2.328e-3
0.388, -2.331e-3
0.389, -2.334e-3
0.390, -2.337e-3
0.391, -2.341e-3
0.392, -2.344e-3
0.393, -2.347e-3
0.394, -2.350e-3
0.395, -2.353e-3
0.396, -2.355e-3
0.397, -2.358e-3
0.398, -2.361e-3
0.399, -2.364e-3
0.400, -2.366e-3
0.401, -2.369e-3
0.402, -2.371e-3
0.403, -2.374e-3
0.404, -2.377e-3
0.405, -2.380e-3
0.406, -2.382e-3
0.407, -2.385e-3
0.408, -2.387e-3
0.409, -2.389e-3
0.410, -2.392e-3
0.411, -2.394e-3
0.412, -2.397e-3
0.413, -2.399e-3
0.414, -2.401e-3
0.415, -2.403e-3
0.416, -2.406e-3
0.417, -2.408e-3
0.418, -2.410e-3
0.419, -2.412e-3
0.420, -2.414e-3
0.421, -2.416e-3
0.422, -2.418e-3
0.423, -2.420e-3
0.424, -2.421e-3
0.425, -2.423e-3
0.426, -2.425e-3
0.427, -2.427e-3
0.428, -2.429e-3
0.429, -2.431e-3
0.430, -2.432e-3
0.431, -2.434e-3
0.432, -2.435e-3
0.433, -2.437e-3
0.434, -2.438e-3
0.435, -2.440e-3
0.436, -2.441e-3
0.437, -2.443e-3
0.438, -2.444e-3
0.439, -2.445e-3
0.440, -2.446e-3
0.441, -2.447e-3
0.442, -2.449e-3
0.443, -2.450e-3
0.444, -2.451e-3
0.445, -2.452e-3
0.446, -2.453e-3
0.447, -2.454e-3
0.448, -2.455e-3
0.449, -2.456e-3
0.450, -2.456e-3
0.451, -2.457e-3
0.452, -2.458e-3
0.453, -2.458e-3
0.454, -2.459e-3
0.455, -2.460e-3
0.456, -2.461e-3
0.457, -2.462e-3
0.458, -2.462e-3
0.459, -2.463e-3
0.460, -2.464e-3
0.461, -2.464e-3
0.462, -2.465e-3
0.463, -2.466e-3
0.464, -2.466e-3
0.465, -2.466e-3
0.466, -2.467e-3
0.467, -2.468e-3
0.468, -2.468e-3
0.469, -2.469e-3
0.470, -2.469e-3
0.471, -2.469e-3
0.472, -2.470e-3
0.473, -2.470e-3
0.474, -2.470e-3
0.475, -2.471e-3
0.476, -2.471e-3
0.477, -2.471e-3
0.478, -2.472e-3
0.479, -2.472e-3
0.480, -2.472e-3
0.481, -2.472e-3
0.482, -2.473e-3
0.483, -2.473e-3
0.484, -2.473e-3
0.485, -2.473e-3
0.486, -2.473e-3
0.487, -2.474e-3
0.488, -2.474e-3
0.489, -2.474e-3
0.490, -2.474e-3
0.491, -2.474e-3
0.492, -2.474e-3
0.493, -2.474e-3
0.494, -2.474e-3
0.495, -2.474e-3
0.496, -2.474e-3
0.497, -2.474e-3
0.498, -2.474e-3
0.499, -2.474e-3
0.500, -2.474e-3
0.501, -2.473e-3
0.502, -2.473e-3
0.503, -2.473e-3
0.504, -2.473e-3
0.505, -2.473e-3
0.506, -2.473e-3
0.507, -2.473e-3
0.508, -2.473e-3
0.509, -2.472e-3
0.510, -2.473e-3
0.511, -2.473e-3
0.512, -2.473e-3
0.513, -2.473e-3
0.514, -2.473e-3
0.515, -2.473e-3
0.516, -2.473e-3
0.517, -2.472e-3
0.518, -2.472e-3
0.519, -2.472e-3
0.520, -2.472e-3
0.521, -2.472e-3
0.522, -2.472e-3
0.523, -2.471e-3
0.524, -2.471e-3
0.525, -2.471e-3
0.526, -2.471e-3
0.527, -2.471e-3
0.528, -2.470e-3
0.529, -2.470e-3
0.530, -2.470e-3
0.531, -2.470e-3
0.532, -2.470e-3
0.533, -2.469e-3
0.534, -2.469e-3
0.535, -2.468e-3
0.536, -2.468e-3
0.537, -2.468e-3
0.538, -2.468e-3
0.539, -2.467e-3
0.540, -2.467e-3
0.541, -2.466e-3
0.542, -2.466e-3
0.543, -2.466e-3
0.544, -2.466e-3
0.545, -2.466e-3
0.546, -2.466e-3
0.547, -2.465e-3
0.548, -2.465e-3
0.549, -2.465e-3
0.550, -2.464e-3
0.551, -2.464e-3
0.552, -2.463e-3
0.553, -2.463e-3
0.554, -2.463e-3
0.555, -2.462e-3
0.556, -2.462e-3
0.557, -2.462e-3
0.558, -2.461e-3
0.559, -2.461e-3
0.560, -2.460e-3
0.561, -2.460e-3
0.562, -2.460e-3
0.563, -2.459e-3
0.564, -2.459e-3
0.565, -2.459e-3
0.566, -2.458e-3
0.567, -2.458e-3
0.568, -2.457e-3
0.569, -2.457e-3
0.570, -2.456e-3
0.571, -2.456e-3
0.572, -2.455e-3
0.573, -2.455e-3
0.574, -2.454e-3
0.575, -2.454e-3
0.576, -2.453e-3
0.577, -2.453e-3
0.578, -2.452e-3
0.579, -2.451e-3
0.580, -2.451e-3
0.581, -2.450e-3
0.582, -2.450e-3
0.583, -2.449e-3
0.584, -2.449e-3
0.585, -2.448e-3
0.586, -2.447e-3
0.587, -2.447e-3
0.588, -2.446e-3
0.589, -2.445e-3
0.590, -2.445e-3
0.591, -2.444e-3
0.592, -2.443e-3
0.593, -2.443e-3
0.594, -2.442e-3
0.595, -2.441e-3
0.596, -2.440e-3
0.597, -2.439e-3
0.598, -2.438e-3
0.599, -2.438e-3
0.600, -2.437e-3
0.601, -2.436e-3
0.602, -2.435e-3
0.603, -2.434e-3
0.604, -2.433e-3
0.605, -2.432e-3
0.606, -2.431e-3
0.607, -2.431e-3
0.608, -2.430e-3
0.609, -2.429e-3
0.610, -2.428e-3
0.611, -2.427e-3
0.612, -2.426e-3
0.613, -2.424e-3
0.614, -2.424e-3
0.615, -2.423e-3
0.616, -2.422e-3
0.617, -2.421e-3
0.618, -2.420e-3
0.619, -2.419e-3
0.620, -2.418e-3
0.621, -2.417e-3
0.622, -2.415e-3
0.623, -2.415e-3
0.624, -2.413e-3
0.625, -2.412e-3
0.626, -2.411e-3
0.627, -2.410e-3
0.628, -2.409e-3
0.629, -2.408e-3
0.630, -2.407e-3
0.631, -2.406e-3
0.632, -2.404e-3
0.633, -2.403e-3
0.634, -2.402e-3
0.635, -2.401e-3
0.636, -2.400e-3
0.637, -2.398e-3
0.638, -2.397e-3
0.639, -2.396e-3
0.640, -2.394e-3
0.641, -2.393e-3
0.642, -2.392e-3
0.643, -2.391e-3
0.644, -2.389e-3
0.645, -2.388e-3
0.646, -2.387e-3
0.647, -2.386e-3
0.648, -2.385e-3
0.649, -2.383e-3
0.650, -2.382e-3
0.651, -2.380e-3
0.652, -2.379e-3
0.653, -2.377e-3
0.654, -2.376e-3
0.655, -2.375e-3
0.656, -2.373e-3
0.657, -2.372e-3
0.658, -2.371e-3
0.659, -2.370e-3
0.660, -2.369e-3
0.661, -2.367e-3
0.662, -2.366e-3
0.663, -2.364e-3
0.664, -2.363e-3
0.665, -2.362e-3
0.666, -2.360e-3
0.667, -2.359e-3
0.668, -2.357e-3
0.669, -2.356e-3
0.670, -2.355e-3
0.671, -2.353e-3
0.672, -2.352e-3
0.673, -2.350e-3
0.674, -2.349e-3
0.675, -2.347e-3
0.676, -2.346e-3
0.677, -2.344e-3
0.678, -2.343e-3
0.679, -2.342e-3
0.680, -2.340e-3
0.681, -2.339e-3
0.682, -2.337e-3
0.683, -2.336e-3
0.684, -2.334e-3
0.685, -2.333e-3
0.686, -2.332e-3
0.687, -2.330e-3
0.688, -2.329e-3
0.689, -2.327e-3
0.690, -2.326e-3
0.691, -2.325e-3
0.692, -2.324e-3
0.693, -2.322e-3
0.694, -2.321e-3
0.695, -2.320e-3
0.696, -2.318e-3
0.697, -2.317e-3
0.698, -2.316e-3
0.699, -2.314e-3
0.700, -2.313e-3
0.701, -2.311e-3
0.702, -2.310e-3
0.703, -2.309e-3
0.704, -2.307e-3
0.705, -2.306e-3
0.706, -2.304e-3
0.707, -2.303e-3
0.708, -2.302e-3
0.709, -2.300e-3
0.710, -2.299e-3
0.711, -2.298e-3
0.712, -2.296e-3
0.713, -2.295e-3
0.714, -2.294e-3
0.715, -2.292e-3
0.716, -2.291e-3
0.717, -2.290e-3
0.718, -2.289e-3
0.719, -2.288e-3
0.720, -2.286e-3
0.721, -2.285e-3
0.722, -2.284e-3
0.723, -2.283e-3
0.724, -2.282e-3
0.725, -2.280e-3
0.726, -2.279e-3
0.727, -2.277e-3
0.728, -2.276e-3
0.729, -2.275e-3
0.730, -2.273e-3
0.731, -2.272e-3
0.732, -2.271e-3
0.733, -2.269e-3
0.734, -2.268e-3
0.735, -2.267e-3
0.736, -2.265e-3
0.737, -2.264e-3
0.738, -2.263e-3
0.739, -2.261e-3
0.740, -2.260e-3
0.741, -2.259e-3
0.742, -2.258e-3
0.743, -2.257e-3
0.744, -2.255e-3
0.745, -2.254e-3
0.746, -2.253e-3
0.747, -2.251e-3
0.748, -2.250e-3
0.749, -2.249e-3
0.750, -2.248e-3
0.751, -2.247e-3
0.752, -2.246e-3
0.753, -2.245e-3
0.754, -2.243e-3
0.755, -2.242e-3
0.756, -2.241e-3
0.757, -2.240e-3
0.758, -2.238e-3
0.759, -2.237e-3
0.760, -2.236e-3
0.761, -2.235e-3
0.762, -2.234e-3
0.763, -2.233e-3
0.764, -2.232e-3
0.765, -2.231e-3
0.766, -2.230e-3
0.767, -2.229e-3
0.768, -2.228e-3
0.769, -2.228e-3
0.770, -2.227e-3
0.771, -2.226e-3
0.772, -2.225e-3
0.773, -2.224e-3
0.774, -2.223e-3
0.775, -2.222e-3
0.776, -2.221e-3
0.777, -2.220e-3
0.778, -2.219e-3
0.779, -2.218e-3
0.780, -2.218e-3
0.781, -2.217e-3
0.782, -2.216e-3
0.783, -2.215e-3
0.784, -2.214e-3
0.785, -2.213e-3
0.786, -2.213e-3
0.787, -2.212e-3
0.788, -2.212e-3
0.789, -2.211e-3
0.790, -2.210e-3
0.791, -2.210e-3
0.792, -2.209e-3
0.793, -2.208e-3
0.794, -2.208e-3
0.795, -2.207e-3
0.796, -2.207e-3
0.797, -2.206e-3
0.798, -2.206e-3
0.799, -2.205e-3
0.800, -2.205e-3
0.801, -2.204e-3
0.802, -2.204e-3
0.803, -2.204e-3
0.804, -2.203e-3
0.805, -2.203e-3
0.806, -2.203e-3
0.807, -2.203e-3
0.808, -2.202e-3
0.809, -2.202e-3
0.810, -2.202e-3
0.811, -2.202e-3
0.812, -2.202e-3
0.813, -2.202e-3
0.814, -2.202e-3
0.815, -2.201e-3
0.816, -2.201e-3
0.817, -2.201e-3
0.818, -2.201e-3
0.819, -2.203e-3
0.820, -2.204e-3
0.821, -2.204e-3
0.822, -2.204e-3
0.823, -2.204e-3
0.824, -2.204e-3
0.825, -2.204e-3
0.826, -2.204e-3
0.827, -2.204e-3
0.828, -2.204e-3
0.829, -2.204e-3
0.830, -2.205e-3
0.831, -2.205e-3
0.832, -2.205e-3
0.833, -2.206e-3
0.834, -2.206e-3
0.835, -2.207e-3
0.836, -2.207e-3
0.837, -2.208e-3
0.838, -2.208e-3
0.839, -2.209e-3
0.840, -2.210e-3
0.841, -2.210e-3
0.842, -2.211e-3
0.843, -2.212e-3
0.844, -2.213e-3
0.845, -2.213e-3
0.846, -2.214e-3
0.847, -2.215e-3
0.848, -2.216e-3
0.849, -2.217e-3
0.850, -2.218e-3
0.851, -2.218e-3
0.852, -2.219e-3
0.853, -2.220e-3
0.854, -2.221e-3
0.855, -2.222e-3
0.856, -2.223e-3
0.857, -2.224e-3
0.858, -2.225e-3
0.859, -2.226e-3
0.860, -2.228e-3
0.861, -2.229e-3
0.862, -2.230e-3
0.863, -2.232e-3
0.864, -2.233e-3
0.865, -2.234e-3
0.866, -2.235e-3
0.867, -2.237e-3
0.868, -2.238e-3
0.869, -2.239e-3
0.870, -2.241e-3
0.871, -2.243e-3
0.872, -2.245e-3
0.873, -2.246e-3
0.874, -2.248e-3
0.875, -2.249e-3
0.876, -2.251e-3
0.877, -2.253e-3
0.878, -2.254e-3
0.879, -2.256e-3
0.880, -2.258e-3
0.881, -2.260e-3
0.882, -2.262e-3
0.883, -2.264e-3
0.884, -2.266e-3
0.885, -2.267e-3
0.886, -2.270e-3
0.887, -2.272e-3
0.888, -2.274e-3
0.889, -2.276e-3
0.890, -2.278e-3
0.891, -2.280e-3
0.892, -2.283e-3
0.893, -2.285e-3
0.894, -2.287e-3
0.895, -2.289e-3
0.896, -2.291e-3
0.897, -2.294e-3
0.898, -2.296e-3
0.899, -2.299e-3
0.900, -2.301e-3
0.901, -2.303e-3
0.902, -2.306e-3
0.903, -2.309e-3
0.904, -2.311e-3
0.905, -2.314e-3
0.906, -2.316e-3
0.907, -2.319e-3
0.908, -2.322e-3
0.909, -2.324e-3
0.910, -2.327e-3
0.911, -2.330e-3
0.912, -2.332e-3
0.913, -2.335e-3
0.914, -2.338e-3
0.915, -2.341e-3
0.916, -2.344e-3
0.917, -2.347e-3
0.918, -2.350e-3
0.919, -2.353e-3
0.920, -2.356e-3
0.921, -2.359e-3
0.922, -2.363e-3
0.923, -2.367e-3
0.924, -2.370e-3
0.925, -2.373e-3
0.926, -2.376e-3
0.927, -2.379e-3
0.928, -2.383e-3
0.929, -2.386e-3
0.930, -2.389e-3
0.931, -2.392e-3
0.932, -2.396e-3
0.933, -2.399e-3
0.934, -2.403e-3
0.935, -2.406e-3
0.936, -2.410e-3
0.937, -2.413e-3
0.938, -2.417e-3
0.939, -2.420e-3
0.940, -2.424e-3
0.941, -2.428e-3
0.942, -2.431e-3
0.943, -2.435e-3
0.944, -2.439e-3
0.945, -2.443e-3
0.946, -2.446e-3
0.947, -2.450e-3
0.948, -2.454e-3
0.949, -2.457e-3
0.950, -2.461e-3
0.951, -2.465e-3
0.952, -2.469e-3
0.953, -2.473e-3
0.954, -2.477e-3
0.955, -2.481e-3
0.956, -2.485e-3
0.957, -2.488e-3
0.958, -2.492e-3
0.959, -2.496e-3
0.960, -2.500e-3
0.961, -2.504e-3
0.962, -2.508e-3
0.963, -2.512e-3
0.964, -2.516e-3
0.965, -2.520e-3
0.966, -2.524e-3
0.967, -2.529e-3
0.968, -2.532e-3
0.969, -2.537e-3
0.970, -2.541e-3
0.971, -2.545e-3
0.972, -2.549e-3
0.973, -2.554e-3
0.974, -2.558e-3
0.975, -2.562e-3
0.976, -2.566e-3
0.977, -2.571e-3
0.978, -2.575e-3
0.979, -2.579e-3
0.980, -2.583e-3
0.981, -2.587e-3
0.982, -2.591e-3
0.983, -2.595e-3
0.984, -2.599e-3
0.985, -2.604e-3
0.986, -2.607e-3
0.987, -2.611e-3
0.988, -2.615e-3
0.989, -2.619e-3
0.990, -2.623e-3
0.991, -2.628e-3
0.992, -2.632e-3
0.993, -2.636e-3
0.994, -2.640e-3
0.995, -2.644e-3
0.996, -2.648e-3
0.997, -2.652e-3
0.998, -2.656e-3
0.999, -2.660e-3
1.000, -2.664e-3
1.001, -2.668e-3
1.002, -2.672e-3
1.003, -2.676e-3
1.004, -2.680e-3
1.005, -2.683e-3
1.006, -2.687e-3
1.007, -2.691e-3
1.008, -2.695e-3
1.009, -2.699e-3
1.010, -2.703e-3
1.011, -2.707e-3
1.012, -2.710e-3
1.013, -2.714e-3
1.014, -2.718e-3
1.015, -2.721e-3
1.016, -2.725e-3
1.017, -2.729e-3
1.018, -2.732e-3
1.019, -2.736e-3
1.020, -2.740e-3
1.021, -2.743e-3
1.022, -2.747e-3
1.023, -2.750e-3
1.024, -2.754e-3
1.025, -2.758e-3
1.026, -2.761e-3
1.027, -2.765e-3
1.028, -2.768e-3
1.029, -2.771e-3
1.030, -2.775e-3
1.031, -2.779e-3
1.032, -2.782e-3
1.033, -2.785e-3
1.034, -2.789e-3
1.035, -2.792e-3
1.036, -2.795e-3
1.037, -2.798e-3
1.038, -2.802e-3
1.039, -2.805e-3
1.040, -2.808e-3
1.041, -2.812e-3
1.042, -2.815e-3
1.043, -2.818e-3
1.044, -2.821e-3
1.045, -2.824e-3
1.046, -2.827e-3
1.047, -2.830e-3
1.048, -2.833e-3
1.049, -2.837e-3
1.050, -2.840e-3
1.051, -2.843e-3
1.052, -2.846e-3
1.053, -2.849e-3
1.054, -2.852e-3
1.055, -2.855e-3
1.056, -2.858e-3
1.057, -2.862e-3
1.058, -2.864e-3
1.059, -2.868e-3
1.060, -2.871e-3
1.061, -2.873e-3
1.062, -2.877e-3
1.063, -2.880e-3
1.064, -2.883e-3
1.065, -2.886e-3
1.066, -2.889e-3
1.067, -2.892e-3
1.068, -2.896e-3
1.069, -2.899e-3
1.070, -2.902e-3
1.071, -2.906e-3
1.072, -2.909e-3
1.073, -2.912e-3
1.074, -2.915e-3
1.075, -2.919e-3
1.076, -2.923e-3
1.077, -2.926e-3
1.078, -2.930e-3
1.079, -2.933e-3
1.080, -2.937e-3
1.081, -2.940e-3
1.082, -2.944e-3
1.083, -2.948e-3
1.084, -2.952e-3
1.085, -2.956e-3
1.086, -2.960e-3
1.087, -2.963e-3
1.088, -2.967e-3
1.089, -2.971e-3
1.090, -2.975e-3
1.091, -2.979e-3
1.092, -2.984e-3
1.093, -2.988e-3
1.094, -2.993e-3
1.095, -2.997e-3
1.096, -3.002e-3
1.097, -3.007e-3
1.098, -3.011e-3
1.099, -3.016e-3
1.100, -2.969e-3
1.099, -2.818e-3
1.098, -2.669e-3
1.097, -2.526e-3
1.096, -2.390e-3
1.095, -2.258e-3
1.094, -2.131e-3
1.093, -2.010e-3
1.092, -1.893e-3
1.091, -1.780e-3
1.090, -1.671e-3
1.089, -1.565e-3
1.088, -1.462e-3
1.087, -1.362e-3
1.086, -1.267e-3
1.085, -1.174e-3
1.084, -1.084e-3
1.083, -9.962e-4
1.082, -9.114e-4
1.081, -8.294e-4
1.080, -7.497e-4
1.079, -6.713e-4
1.078, -5.964e-4
1.077, -5.233e-4
1.076, -4.528e-4
1.075, -3.838e-4
1.074, -3.176e-4
1.073, -2.533e-4
1.072, -1.902e-4
1.071, -1.288e-4
1.070, -6.997e-5
1.069, -1.171e-5
1.068, 4.489e-5
1.067, 1.002e-4
1.066, 1.539e-4
1.065, 2.055e-4
1.064, 2.558e-4
1.063, 3.048e-4
1.062, 3.520e-4
1.061, 3.987e-4
1.060, 4.438e-4
1.059, 4.872e-4
1.058, 5.302e-4
1.057, 5.717e-4
1.056, 6.123e-4
1.055, 6.518e-4
1.054, 6.894e-4
1.053, 7.265e-4
1.052, 7.628e-4
1.051, 7.978e-4
1.050, 8.324e-4
1.049, 8.659e-4
1.048, 8.991e-4
1.047, 9.310e-4
1.046, 9.615e-4
1.045, 9.914e-4
1.044, 1.021e-3
1.043, 1.049e-3
1.042, 1.076e-3
1.041, 1.103e-3
1.040, 1.129e-3
1.039, 1.154e-3
1.038, 1.179e-3
1.037, 1.203e-3
1.036, 1.226e-3
1.035, 1.248e-3
1.034, 1.270e-3
1.033, 1.291e-3
1.032, 1.312e-3
1.031, 1.333e-3
1.030, 1.353e-3
1.029, 1.372e-3
1.028, 1.391e-3
1.027, 1.409e-3
1.026, 1.427e-3
1.025, 1.444e-3
1.024, 1.461e-3
1.023, 1.478e-3
1.022, 1.494e-3
1.021, 1.509e-3
1.020, 1.524e-3
1.019, 1.539e-3
1.018, 1.553e-3
1.017, 1.567e-3
1.016, 1.581e-3
1.015, 1.594e-3
1.014, 1.607e-3
1.013, 1.619e-3
1.012, 1.631e-3
1.011, 1.643e-3
1.010, 1.656e-3
1.009, 1.667e-3
1.008, 1.678e-3
1.007, 1.689e-3
1.006, 1.699e-3
1.005, 1.710e-3
1.004, 1.720e-3
1.003, 1.729e-3
1.002, 1.739e-3
1.001, 1.748e-3
1.000, 1.756e-3
0.999, 1.765e-3
0.998, 1.774e-3
0.997, 1.782e-3
0.996, 1.790e-3
0.995, 1.797e-3
0.994, 1.805e-3
0.993, 1.813e-3
0.992, 1.820e-3
0.991, 1.827e-3
0.990, 1.834e-3
0.989, 1.840e-3
0.988, 1.847e-3
0.987, 1.853e-3
0.986, 1.859e-3
0.985, 1.865e-3
0.984, 1.871e-3
0.983, 1.877e-3
0.982, 1.882e-3
0.981, 1.888e-3
0.980, 1.893e-3
0.979, 1.898e-3
0.978, 1.903e-3
0.977, 1.908e-3
0.976, 1.913e-3
0.975, 1.918e-3
0.974, 1.922e-3
0.973, 1.927e-3
0.972, 1.931e-3
0.971, 1.935e-3
0.970, 1.940e-3
0.969, 1.944e-3
0.968, 1.947e-3
0.967, 1.951e-3
0.966, 1.955e-3
0.965, 1.959e-3
0.964, 1.962e-3
0.963, 1.965e-3
0.962, 1.969e-3
0.961, 1.972e-3
0.960, 1.975e-3
0.959, 1.978e-3
0.958, 1.980e-3
0.957, 1.983e-3
0.956, 1.986e-3
0.955, 1.989e-3
0.954, 1.991e-3
0.953, 1.994e-3
0.952, 1.996e-3
0.951, 1.999e-3
0.950, 2.001e-3
0.949, 2.003e-3
0.948, 2.005e-3
0.947, 2.007e-3
0.946, 2.009e-3
0.945, 2.011e-3
0.944, 2.013e-3
0.943, 2.014e-3
0.942, 2.016e-3
0.941, 2.017e-3
0.940, 2.019e-3
0.939, 2.020e-3
0.938, 2.022e-3
0.937, 2.023e-3
0.936, 2.024e-3
0.935, 2.025e-3
0.934, 2.026e-3
0.933, 2.027e-3
0.932, 2.028e-3
0.931, 2.028e-3
0.930, 2.029e-3
0.929, 2.030e-3
0.928, 2.031e-3
0.927, 2.031e-3
0.926, 2.032e-3
0.925, 2.032e-3
0.924, 2.033e-3
0.923, 2.033e-3
0.922, 2.033e-3
0.921, 2.034e-3
0.920, 2.034e-3
0.919, 2.034e-3
0.918, 2.034e-3
0.917, 2.034e-3
0.916, 2.034e-3
0.915, 2.034e-3
0.914, 2.034e-3
0.913, 2.033e-3
0.912, 2.033e-3
0.911, 2.032e-3
0.910, 2.032e-3
0.909, 2.031e-3
0.908, 2.031e-3
0.907, 2.030e-3
0.906, 2.029e-3
0.905, 2.028e-3
0.904, 2.027e-3
0.903, 2.027e-3
0.902, 2.026e-3
0.901, 2.025e-3
0.900, 2.024e-3
0.899, 2.022e-3
0.898, 2.021e-3
0.897, 2.020e-3
0.896, 2.019e-3
0.895, 2.018e-3
0.894, 2.016e-3
0.893, 2.015e-3
0.892, 2.014e-3
0.891, 2.012e-3
0.890, 2.011e-3
0.889, 2.009e-3
0.888, 2.007e-3
0.887, 2.006e-3
0.886, 2.004e-3
0.885, 2.003e-3
0.884, 2.001e-3
0.883, 1.999e-3
0.882, 1.997e-3
0.881, 1.995e-3
0.880, 1.993e-3
0.879, 1.991e-3
0.878, 1.989e-3
0.877, 1.987e-3
0.876, 1.985e-3
0.875, 1.982e-3
0.874, 1.981e-3
0.873, 1.978e-3
0.872, 1.976e-3
0.871, 1.974e-3
0.870, 1.972e-3
0.869, 1.969e-3
0.868, 1.967e-3
0.867, 1.964e-3
0.866, 1.962e-3
0.865, 1.960e-3
0.864, 1.957e-3
0.863, 1.955e-3
0.862, 1.952e-3
0.861, 1.950e-3
0.860, 1.947e-3
0.859, 1.944e-3
0.858, 1.942e-3
0.857, 1.939e-3
0.856, 1.937e-3
0.855, 1.934e-3
0.854, 1.931e-3
0.853, 1.928e-3
0.852, 1.926e-3
0.851, 1.923e-3
0.850, 1.921e-3
0.849, 1.918e-3
0.848, 1.915e-3
0.847, 1.912e-3
0.846, 1.909e-3
0.845, 1.907e-3
0.844, 1.904e-3
0.843, 1.901e-3
0.842, 1.898e-3
0.841, 1.895e-3
0.840, 1.892e-3
0.839, 1.890e-3
0.838, 1.888e-3
0.837, 1.885e-3
0.836, 1.883e-3
0.835, 1.879e-3
0.834, 1.877e-3
0.833, 1.874e-3
0.832, 1.871e-3
0.831, 1.868e-3
0.830, 1.865e-3
0.829, 1.862e-3
0.828, 1.860e-3
0.827, 1.857e-3
0.826, 1.854e-3
0.825, 1.852e-3
0.824, 1.849e-3
0.823, 1.847e-3
0.822, 1.844e-3
0.821, 1.841e-3
0.820, 1.839e-3
0.819, 1.838e-3
0.818, 1.836e-3
0.817, 1.833e-3
0.816, 1.830e-3
0.815, 1.828e-3
0.814, 1.825e-3
0.813, 1.823e-3
0.812, 1.820e-3
0.811, 1.817e-3
0.810, 1.815e-3
0.809, 1.813e-3
0.808, 1.810e-3
0.807, 1.808e-3
0.806, 1.805e-3
0.805, 1.803e-3
0.804, 1.801e-3
0.803, 1.798e-3
0.802, 1.796e-3
0.801, 1.794e-3
0.800, 1.792e-3
0.799, 1.790e-3
0.798, 1.788e-3
0.797, 1.786e-3
0.796, 1.784e-3
0.795, 1.781e-3
0.794, 1.780e-3
0.793, 1.778e-3
0.792, 1.776e-3
0.791, 1.774e-3
0.790, 1.772e-3
0.789, 1.770e-3
0.788, 1.768e-3
0.787, 1.766e-3
0.786, 1.765e-3
0.785, 1.762e-3
0.784, 1.761e-3
0.783, 1.759e-3
0.782, 1.757e-3
0.781, 1.756e-3
0.780, 1.755e-3
0.779, 1.753e-3
0.778, 1.751e-3
0.777, 1.750e-3
0.776, 1.748e-3
0.775, 1.747e-3
0.774, 1.745e-3
0.773, 1.744e-3
0.772, 1.743e-3
0.771, 1.741e-3
0.770, 1.740e-3
0.769, 1.739e-3
0.768, 1.738e-3
0.767, 1.737e-3
0.766, 1.735e-3
0.765, 1.734e-3
0.764, 1.733e-3
0.763, 1.731e-3
0.762, 1.731e-3
0.761, 1.730e-3
0.760, 1.728e-3
0.759, 1.727e-3
0.758, 1.726e-3
0.757, 1.725e-3
0.756, 1.724e-3
0.755, 1.723e-3
0.754, 1.722e-3
0.753, 1.721e-3
0.752, 1.720e-3
0.751, 1.720e-3
0.750, 1.719e-3
0.749, 1.718e-3
0.748, 1.718e-3
0.747, 1.717e-3
0.746, 1.716e-3
0.745, 1.715e-3
0.744, 1.714e-3
0.743, 1.714e-3
0.742, 1.713e-3
0.741, 1.713e-3
0.740, 1.712e-3
0.739, 1.711e-3
0.738, 1.711e-3
0.737, 1.710e-3
0.736, 1.710e-3
0.735, 1.709e-3
0.734, 1.709e-3
0.733, 1.708e-3
0.732, 1.708e-3
0.731, 1.707e-3
0.730, 1.707e-3
0.729, 1.706e-3
0.728, 1.706e-3
0.727, 1.706e-3
0.726, 1.705e-3
0.725, 1.705e-3
0.724, 1.705e-3
0.723, 1.705e-3
0.722, 1.705e-3
0.721, 1.704e-3
0.720, 1.704e-3
0.719, 1.704e-3
0.718, 1.704e-3
0.717, 1.705e-3
0.716, 1.705e-3
0.715, 1.705e-3
0.714, 1.705e-3
0.713, 1.705e-3
0.712, 1.704e-3
0.711, 1.704e-3
0.710, 1.705e-3
0.709, 1.705e-3
0.708, 1.705e-3
0.707, 1.705e-3
0.706, 1.705e-3
0.705, 1.705e-3
0.704, 1.705e-3
0.703, 1.706e-3
0.702, 1.706e-3
0.701, 1.706e-3
0.700, 1.706e-3
0.699, 1.706e-3
0.698, 1.707e-3
0.697, 1.707e-3
0.696, 1.708e-3
0.695, 1.708e-3
0.694, 1.708e-3
0.693, 1.709e-3
0.692, 1.709e-3
0.691, 1.710e-3
0.690, 1.710e-3
0.689, 1.711e-3
0.688, 1.711e-3
0.687, 1.712e-3
0.686, 1.712e-3
0.685, 1.713e-3
0.684, 1.714e-3
0.683, 1.714e-3
0.682, 1.715e-3
0.681, 1.716e-3
0.680, 1.716e-3
0.679, 1.717e-3
0.678, 1.717e-3
0.677, 1.718e-3
0.676, 1.719e-3
0.675, 1.719e-3
0.674, 1.720e-3
0.673, 1.721e-3
0.672, 1.722e-3
0.671, 1.723e-3
0.670, 1.723e-3
0.669, 1.724e-3
0.668, 1.725e-3
0.667, 1.725e-3
0.666, 1.726e-3
0.665, 1.728e-3
0.664, 1.728e-3
0.663, 1.729e-3
0.662, 1.730e-3
0.661, 1.731e-3
0.660, 1.732e-3
0.659, 1.733e-3
0.658, 1.734e-3
0.657, 1.735e-3
0.656, 1.736e-3
0.655, 1.737e-3
0.654, 1.738e-3
0.653, 1.739e-3
0.652, 1.740e-3
0.651, 1.741e-3
0.650, 1.742e-3
0.649, 1.743e-3
0.648, 1.744e-3
0.647, 1.745e-3
0.646, 1.747e-3
0.645, 1.748e-3
0.644, 1.749e-3
0.643, 1.750e-3
0.642, 1.751e-3
0.641, 1.752e-3
0.640, 1.753e-3
0.639, 1.754e-3
0.638, 1.755e-3
0.637, 1.756e-3
0.636, 1.758e-3
0.635, 1.758e-3
0.634, 1.760e-3
0.633, 1.761e-3
0.632, 1.762e-3
0.631, 1.764e-3
0.630, 1.765e-3
0.629, 1.766e-3
0.628, 1.768e-3
0.627, 1.769e-3
0.626, 1.770e-3
0.625, 1.771e-3
0.624, 1.773e-3
0.623, 1.774e-3
0.622, 1.775e-3
0.621, 1.777e-3
0.620, 1.778e-3
0.619, 1.779e-3
0.618, 1.781e-3
0.617, 1.782e-3
0.616, 1.783e-3
0.615, 1.785e-3
0.614, 1.787e-3
0.613, 1.788e-3
0.612, 1.789e-3
0.611, 1.791e-3
0.610, 1.792e-3
0.609, 1.793e-3
0.608, 1.795e-3
0.607, 1.797e-3
0.606, 1.798e-3
0.605, 1.800e-3
0.604, 1.801e-3
0.603, 1.802e-3
0.602, 1.804e-3
0.601, 1.806e-3
0.600, 1.807e-3
0.599, 1.808e-3
0.598, 1.810e-3
0.597, 1.811e-3
0.596, 1.813e-3
0.595, 1.814e-3
0.594, 1.816e-3
0.593, 1.817e-3
0.592, 1.819e-3
0.591, 1.821e-3
0.590, 1.822e-3
0.589, 1.824e-3
0.588, 1.826e-3
0.587, 1.827e-3
0.586, 1.829e-3
0.585, 1.830e-3
0.584, 1.831e-3
0.583, 1.833e-3
0.582, 1.835e-3
0.581, 1.837e-3
0.580, 1.838e-3
0.579, 1.840e-3
0.578, 1.842e-3
0.577, 1.843e-3
0.576, 1.845e-3
0.575, 1.846e-3
0.574, 1.848e-3
0.573, 1.850e-3
0.572, 1.851e-3
0.571, 1.853e-3
0.570, 1.855e-3
0.569, 1.857e-3
0.568, 1.858e-3
0.567, 1.860e-3
0.566, 1.861e-3
0.565, 1.863e-3
0.564, 1.865e-3
0.563, 1.867e-3
0.562, 1.869e-3
0.561, 1.870e-3
0.560, 1.872e-3
0.559, 1.874e-3
0.558, 1.875e-3
0.557, 1.877e-3
0.556, 1.879e-3
0.555, 1.881e-3
0.554, 1.883e-3
0.553, 1.884e-3
0.552, 1.886e-3
0.551, 1.888e-3
0.550, 1.889e-3
0.549, 1.891e-3
0.548, 1.893e-3
0.547, 1.894e-3
0.546, 1.896e-3
0.545, 1.898e-3
0.544, 1.900e-3
0.543, 1.902e-3
0.542, 1.904e-3
0.541, 1.905e-3
0.540, 1.907e-3
0.539, 1.909e-3
0.538, 1.911e-3
0.537, 1.913e-3
0.536, 1.914e-3
0.535, 1.916e-3
0.534, 1.918e-3
0.533, 1.919e-3
0.532, 1.921e-3
0.531, 1.923e-3
0.530, 1.925e-3
0.529, 1.927e-3
0.528, 1.928e-3
0.527, 1.930e-3
0.526, 1.931e-3
0.525, 1.933e-3
0.524, 1.935e-3
0.523, 1.937e-3
0.522, 1.938e-3
0.521, 1.940e-3
0.520, 1.942e-3
0.519, 1.943e-3
0.518, 1.945e-3
0.517, 1.947e-3
0.516, 1.948e-3
0.515, 1.950e-3
0.514, 1.951e-3
0.513, 1.953e-3
0.512, 1.955e-3
0.511, 1.957e-3
0.510, 1.959e-3
0.509, 1.960e-3
0.508, 1.962e-3
0.507, 1.963e-3
0.506, 1.965e-3
0.505, 1.967e-3
0.504, 1.968e-3
0.503, 1.970e-3
0.502, 1.971e-3
0.501, 1.973e-3
0.500, 1.975e-3
0.499, 1.976e-3
0.498, 1.978e-3
0.497, 1.979e-3
0.496, 1.980e-3
0.495, 1.982e-3
0.494, 1.983e-3
0.493, 1.985e-3
0.492, 1.986e-3
0.491, 1.988e-3
0.490, 1.989e-3
0.489, 1.991e-3
0.488, 1.992e-3
0.487, 1.994e-3
0.486, 1.995e-3
0.485, 1.996e-3
0.484, 1.998e-3
0.483, 1.999e-3
0.482, 2.000e-3
0.481, 2.002e-3
0.480, 2.003e-3
0.479, 2.005e-3
0.478, 2.006e-3
0.477, 2.007e-3
0.476, 2.008e-3
0.475, 2.010e-3
0.474, 2.011e-3
0.473, 2.012e-3
0.472, 2.013e-3
0.471, 2.015e-3
0.470, 2.016e-3
0.469, 2.017e-3
0.468, 2.019e-3
0.467, 2.020e-3
0.466, 2.021e-3
0.465, 2.022e-3
0.464, 2.024e-3
0.463, 2.025e-3
0.462, 2.026e-3
0.461, 2.028e-3
0.460, 2.029e-3
0.459, 2.030e-3
0.458, 2.032e-3
0.457, 2.032e-3
0.456, 2.034e-3
0.455, 2.035e-3
0.454, 2.036e-3
0.453, 2.037e-3
0.452, 2.038e-3
0.451, 2.039e-3
0.450, 2.041e-3
0.449, 2.042e-3
0.448, 2.043e-3
0.447, 2.044e-3
0.446, 2.045e-3
0.445, 2.047e-3
0.444, 2.048e-3
0.443, 2.049e-3
0.442, 2.050e-3
0.441, 2.051e-3
0.440, 2.052e-3
0.439, 2.054e-3
0.438, 2.054e-3
0.437, 2.056e-3
0.436, 2.057e-3
0.435, 2.058e-3
0.434, 2.059e-3
0.433, 2.061e-3
0.432, 2.062e-3
0.431, 2.063e-3
0.430, 2.064e-3
0.429, 2.065e-3
0.428, 2.067e-3
0.427, 2.068e-3
0.426, 2.069e-3
0.425, 2.070e-3
0.424, 2.071e-3
0.423, 2.072e-3
0.422, 2.073e-3
0.421, 2.075e-3
0.420, 2.076e-3
0.419, 2.077e-3
0.418, 2.078e-3
0.417, 2.079e-3
0.416, 2.080e-3
0.415, 2.082e-3
0.414, 2.083e-3
0.413, 2.084e-3
0.412, 2.085e-3
0.411, 2.086e-3
0.410, 2.088e-3
0.409, 2.089e-3
0.408, 2.090e-3
0.407, 2.092e-3
0.406, 2.093e-3
0.405, 2.094e-3
0.404, 2.096e-3
0.403, 2.097e-3
0.402, 2.098e-3
0.401, 2.099e-3
0.400, 2.101e-3
0.399, 2.102e-3
0.398, 2.103e-3
0.397, 2.104e-3
0.396, 2.106e-3
0.395, 2.107e-3
0.394, 2.108e-3
0.393, 2.109e-3
0.392, 2.111e-3
0.391, 2.112e-3
0.390, 2.113e-3
0.389, 2.115e-3
0.388, 2.116e-3
0.387, 2.117e-3
0.386, 2.119e-3
0.385, 2.120e-3
0.384, 2.122e-3
0.383, 2.123e-3
0.382, 2.124e-3
0.381, 2.126e-3
0.380, 2.127e-3
0.379, 2.128e-3
0.378, 2.130e-3
0.377, 2.131e-3
0.376, 2.133e-3
0.375, 2.134e-3
0.374, 2.135e-3
0.373, 2.137e-3
0.372, 2.138e-3
0.371, 2.139e-3
0.370, 2.141e-3
0.369, 2.142e-3
0.368, 2.143e-3
0.367, 2.145e-3
0.366, 2.146e-3
0.365, 2.147e-3
0.364, 2.149e-3
0.363, 2.150e-3
0.362, 2.152e-3
0.361, 2.153e-3
0.360, 2.155e-3
0.359, 2.156e-3
0.358, 2.158e-3
0.357, 2.159e-3
0.356, 2.161e-3
0.355, 2.162e-3
0.354, 2.163e-3
0.353, 2.165e-3
0.352, 2.166e-3
0.351, 2.168e-3
0.350, 2.169e-3
0.349, 2.170e-3
0.348, 2.171e-3
0.347, 2.173e-3
0.346, 2.174e-3
0.345, 2.175e-3
0.344, 2.176e-3
0.343, 2.178e-3
0.342, 2.179e-3
0.341, 2.180e-3
0.340, 2.181e-3
0.339, 2.183e-3
0.338, 2.184e-3
0.337, 2.185e-3
0.336, 2.186e-3
0.335, 2.187e-3
0.334, 2.188e-3
0.333, 2.189e-3
0.332, 2.191e-3
0.331, 2.192e-3
0.330, 2.193e-3
0.329, 2.194e-3
0.328, 2.195e-3
0.327, 2.196e-3
0.326, 2.197e-3
0.325, 2.198e-3
0.324, 2.199e-3
0.323, 2.200e-3
0.322, 2.201e-3
0.321, 2.202e-3
0.320, 2.202e-3
0.319, 2.203e-3
0.318, 2.204e-3
0.317, 2.204e-3
0.316, 2.205e-3
0.315, 2.206e-3
0.314, 2.207e-3
0.313, 2.207e-3
0.312, 2.208e-3
0.311, 2.208e-3
0.310, 2.209e-3
0.309, 2.209e-3
0.308, 2.210e-3
0.307, 2.211e-3
0.306, 2.212e-3
0.305, 2.212e-3
0.304, 2.212e-3
0.303, 2.213e-3
0.302, 2.213e-3
0.301, 2.213e-3
0.300, 2.214e-3
0.299, 2.214e-3
0.298, 2.214e-3
0.297, 2.214e-3
0.296, 2.214e-3
0.295, 2.214e-3
0.294, 2.214e-3
0.293, 2.214e-3
0.292, 2.214e-3
0.291, 2.214e-3
0.290, 2.214e-3
0.289, 2.214e-3
0.288, 2.214e-3
0.287, 2.214e-3
0.286, 2.214e-3
0.285, 2.213e-3
0.284, 2.213e-3
0.283, 2.213e-3
0.282, 2.212e-3
0.281, 2.212e-3
0.280, 2.212e-3
0.279, 2.211e-3
0.278, 2.210e-3
0.277, 2.210e-3
0.276, 2.209e-3
0.275, 2.209e-3
0.274, 2.208e-3
0.273, 2.207e-3
0.272, 2.207e-3
0.271, 2.206e-3
0.270, 2.205e-3
0.269, 2.204e-3
0.268, 2.204e-3
0.267, 2.202e-3
0.266, 2.202e-3
0.265, 2.201e-3
0.264, 2.200e-3
0.263, 2.199e-3
0.262, 2.198e-3
0.261, 2.197e-3
0.260, 2.196e-3
0.259, 2.195e-3
0.258, 2.194e-3
0.257, 2.192e-3
0.256, 2.191e-3
0.255, 2.190e-3
0.254, 2.189e-3
0.253, 2.188e-3
0.252, 2.187e-3
0.251, 2.185e-3
0.250, 2.184e-3
0.249, 2.183e-3
0.248, 2.181e-3
0.247, 2.180e-3
0.246, 2.179e-3
0.245, 2.177e-3
0.244, 2.176e-3
0.243, 2.174e-3
0.242, 2.173e-3
0.241, 2.171e-3
0.240, 2.170e-3
0.239, 2.169e-3
0.238, 2.167e-3
0.237, 2.166e-3
0.236, 2.164e-3
0.235, 2.163e-3
0.234, 2.161e-3
0.233, 2.160e-3
0.232, 2.158e-3
0.231, 2.157e-3
0.230, 2.155e-3
0.229, 2.154e-3
0.228, 2.152e-3
0.227, 2.150e-3
0.226, 2.149e-3
0.225, 2.147e-3
0.224, 2.146e-3
0.223, 2.145e-3
0.222, 2.143e-3
0.221, 2.141e-3
0.220, 2.140e-3
0.219, 2.139e-3
0.218, 2.137e-3
0.217, 2.136e-3
0.216, 2.134e-3
0.215, 2.133e-3
0.214, 2.131e-3
0.213, 2.130e-3
0.212, 2.129e-3
0.211, 2.127e-3
0.210, 2.126e-3
0.209, 2.125e-3
0.208, 2.123e-3
0.207, 2.122e-3
0.206, 2.120e-3
0.205, 2.119e-3
0.204, 2.118e-3
0.203, 2.116e-3
0.202, 2.115e-3
0.201, 2.114e-3
0.200, 2.112e-3
0.199, 2.111e-3
0.198, 2.110e-3
0.197, 2.109e-3
0.196, 2.108e-3
0.195, 2.106e-3
0.194, 2.105e-3
0.193, 2.104e-3
0.192, 2.103e-3
0.191, 2.102e-3
0.190, 2.100e-3
0.189, 2.099e-3
0.188, 2.098e-3
0.187, 2.097e-3
0.186, 2.096e-3
0.185, 2.095e-3
0.184, 2.094e-3
0.183, 2.094e-3
0.182, 2.092e-3
0.181, 2.092e-3
0.180, 2.091e-3
0.179, 2.090e-3
0.178, 2.090e-3
0.177, 2.089e-3
0.176, 2.088e-3
0.175, 2.087e-3
0.174, 2.087e-3
0.173, 2.086e-3
0.172, 2.086e-3
0.171, 2.085e-3
0.170, 2.085e-3
0.169, 2.084e-3
0.168, 2.084e-3
0.167, 2.083e-3
0.166, 2.083e-3
0.165, 2.082e-3
0.164, 2.082e-3
0.163, 2.082e-3
0.162, 2.081e-3
0.161, 2.081e-3
0.160, 2.081e-3
0.159, 2.081e-3
0.158, 2.081e-3
0.157, 2.081e-3
0.156, 2.081e-3
0.155, 2.081e-3
0.154, 2.081e-3
0.153, 2.081e-3
0.152, 2.081e-3
0.151, 2.082e-3
0.150, 2.081e-3
0.149, 2.081e-3
0.148, 2.082e-3
0.147, 2.082e-3
0.146, 2.082e-3
0.145, 2.083e-3
0.144, 2.083e-3
0.143, 2.083e-3
0.142, 2.084e-3
0.141, 2.084e-3
0.140, 2.085e-3
0.139, 2.085e-3
0.138, 2.086e-3
0.137, 2.086e-3
0.136, 2.087e-3
0.135, 2.088e-3
0.134, 2.089e-3
0.133, 2.090e-3
0.132, 2.091e-3
0.131, 2.091e-3
0.130, 2.092e-3
0.129, 2.093e-3
0.128, 2.094e-3
0.127, 2.096e-3
0.126, 2.096e-3
0.125, 2.098e-3
0.124, 2.099e-3
0.123, 2.100e-3
0.122, 2.101e-3
0.121, 2.103e-3
0.120, 2.104e-3
0.119, 2.106e-3
0.118, 2.107e-3
0.117, 2.108e-3
0.116, 2.110e-3
0.115, 2.111e-3
0.114, 2.113e-3
0.113, 2.114e-3
0.112, 2.116e-3
0.111, 2.118e-3
0.110, 2.119e-3
0.109, 2.121e-3
0.108, 2.123e-3
0.107, 2.125e-3
0.106, 2.127e-3
0.105, 2.129e-3
0.104, 2.131e-3
0.103, 2.134e-3
0.102, 2.136e-3
0.101, 2.138e-3
0.100, 2.140e-3
0.099, 2.142e-3
0.098, 2.144e-3
0.097, 2.147e-3
0.096, 2.149e-3
0.095, 2.152e-3
0.094, 2.154e-3
0.093, 2.156e-3
0.092, 2.159e-3
0.091, 2.161e-3
0.090, 2.164e-3
0.089, 2.166e-3
0.088, 2.169e-3
0.087, 2.172e-3
0.086, 2.175e-3
0.085, 2.178e-3
0.084, 2.181e-3
0.083, 2.184e-3
0.082, 2.187e-3
0.081, 2.190e-3
0.080, 2.193e-3
0.079, 2.196e-3
0.078, 2.200e-3
0.077, 2.203e-3
0.076, 2.207e-3
0.075, 2.210e-3
0.074, 2.213e-3
0.073, 2.217e-3
0.072, 2.220e-3
0.071, 2.224e-3
0.070, 2.228e-3
0.069, 2.231e-3
0.068, 2.235e-3
0.067, 2.239e-3
0.066, 2.242e-3
0.065, 2.246e-3
0.064, 2.250e-3
0.063, 2.254e-3
0.062, 2.258e-3
0.061, 2.262e-3
0.060, 2.266e-3
0.059, 2.270e-3
0.058, 2.275e-3
0.057, 2.279e-3
0.056, 2.283e-3
0.055, 2.288e-3
0.054, 2.292e-3
0.053, 2.297e-3
0.052, 2.302e-3
0.051, 2.307e-3
0.050, 2.311e-3
0.049, 2.316e-3
0.048, 2.321e-3
0.047, 2.326e-3
0.046, 2.331e-3
0.045, 2.336e-3
0.044, 2.341e-3
0.043, 2.346e-3
0.042, 2.352e-3
0.041, 2.357e-3
0.040, 2.362e-3
0.039, 2.368e-3
0.038, 2.373e-3
0.037, 2.379e-3
0.036, 2.384e-3
0.035, 2.390e-3
0.034, 2.396e-3
0.033, 2.402e-3
0.032, 2.408e-3
0.031, 2.414e-3
0.030, 2.420e-3
0.029, 2.426e-3
0.028, 2.432e-3
0.027, 2.439e-3
0.026, 2.446e-3
0.025, 2.452e-3
0.024, 2.459e-3
0.023, 2.466e-3
0.022, 2.472e-3
0.021, 2.479e-3
0.020, 2.486e-3
0.019, 2.492e-3
0.018, 2.499e-3
0.017, 2.506e-3
0.016, 2.513e-3
0.015, 2.520e-3
0.014, 2.527e-3
0.013, 2.534e-3
0.012, 2.542e-3
0.011, 2.549e-3
0.010, 2.556e-3
0.009, 2.564e-3
0.008, 2.571e-3
0.007, 2.579e-3
0.006, 2.587e-3
0.005, 2.595e-3
0.004, 2.603e-3
0.003, 2.611e-3
0.002, 2.620e-3
0.001, 2.628e-3
0.000, 2.637e-3
-0.001, 2.646e-3
-0.002, 2.654e-3
-0.003, 2.662e-3
-0.004, 2.671e-3
-0.005, 2.679e-3
-0.006, 2.688e-3
-0.007, 2.697e-3
-0.008, 2.705e-3
-0.009, 2.715e-3
-0.010, 2.723e-3
-0.011, 2.733e-3
-0.012, 2.742e-3
-0.013, 2.752e-3
-0.014, 2.761e-3
-0.015, 2.771e-3
-0.016, 2.781e-3
-0.017, 2.791e-3
-0.018, 2.800e-3
-0.019, 2.811e-3
-0.020, 2.820e-3
-0.021, 2.829e-3
-0.022, 2.839e-3
-0.023, 2.849e-3
-0.024, 2.860e-3
-0.025, 2.870e-3
-0.026, 2.880e-3
-0.027, 2.891e-3
-0.028, 2.902e-3
-0.029, 2.912e-3
-0.030, 2.923e-3
-0.031, 2.934e-3
-0.032, 2.944e-3
-0.033, 2.955e-3
-0.034, 2.966e-3
-0.035, 2.977e-3
-0.036, 2.988e-3
-0.037, 2.999e-3
-0.038, 3.010e-3
-0.039, 3.021e-3
-0.040, 3.032e-3
-0.041, 3.044e-3
-0.042, 3.055e-3
-0.043, 3.066e-3
-0.044, 3.078e-3
-0.045, 3.089e-3
-0.046, 3.101e-3
-0.047, 3.112e-3
-0.048, 3.124e-3
-0.049, 3.136e-3
-0.050, 3.147e-3
-0.051, 3.159e-3
-0.052, 3.171e-3
-0.053, 3.183e-3
-0.054, 3.195e-3
-0.055, 3.207e-3
-0.056, 3.219e-3
-0.057, 3.232e-3
-0.058, 3.244e-3
-0.059, 3.256e-3
-0.060, 3.269e-3
-0.061, 3.281e-3
-0.062, 3.293e-3
-0.063, 3.305e-3
-0.064, 3.317e-3
-0.065, 3.330e-3
-0.066, 3.342e-3
-0.067, 3.354e-3
-0.068, 3.367e-3
-0.069, 3.379e-3
-0.070, 3.392e-3
-0.071, 3.404e-3
-0.072, 3.417e-3
-0.073, 3.429e-3
-0.074, 3.441e-3
-0.075, 3.454e-3
-0.076, 3.467e-3
-0.077, 3.479e-3
-0.078, 3.492e-3
-0.079, 3.504e-3
-0.080, 3.516e-3
-0.081, 3.529e-3
-0.082, 3.542e-3
-0.083, 3.554e-3
-0.084, 3.567e-3
-0.085, 3.579e-3
-0.086, 3.592e-3
-0.087, 3.604e-3
-0.088, 3.617e-3
-0.089, 3.630e-3
-0.090, 3.642e-3
-0.091, 3.655e-3
-0.092, 3.667e-3
-0.093, 3.679e-3
-0.094, 3.692e-3
-0.095, 3.704e-3
-0.096, 3.717e-3
-0.097, 3.730e-3
-0.098, 3.742e-3
-0.099, 3.755e-3
