Mar. 10, 2025   11:27:36
Cyclic Voltammetry
File: f:\catholicate college\new ruo2\ruo2 scr 0.05 [-0.1-1.1].txt
Data Source:  Experiment
Instrument Model:  CHI6087E
Header: 
Note: 

Init E (V) = -0.1
High E (V) = 1.1
Low E (V) = -0.1
Init P/N = P
Scan Rate (V/s) = 0.05
Segment = 4
Sample Interval (V) = 0.001
Quiet Time (sec) = 2
Sensitivity (A/V) = 0.01

Results:

Channel 1:
Segment 1:

Segment 2:

Segment 3:

Segment 4:

Potential/V, Current/A

-0.100, 9.950e-3
-0.099, 9.844e-3
-0.098, 9.728e-3
-0.097, 9.614e-3
-0.096, 9.501e-3
-0.095, 9.388e-3
-0.094, 9.279e-3
-0.093, 9.170e-3
-0.092, 9.064e-3
-0.091, 8.958e-3
-0.090, 8.853e-3
-0.089, 8.750e-3
-0.088, 8.646e-3
-0.087, 8.544e-3
-0.086, 8.444e-3
-0.085, 8.344e-3
-0.084, 8.246e-3
-0.083, 8.148e-3
-0.082, 8.051e-3
-0.081, 7.955e-3
-0.080, 7.859e-3
-0.079, 7.765e-3
-0.078, 7.672e-3
-0.077, 7.580e-3
-0.076, 7.489e-3
-0.075, 7.399e-3
-0.074, 7.309e-3
-0.073, 7.220e-3
-0.072, 7.130e-3
-0.071, 7.042e-3
-0.070, 6.955e-3
-0.069, 6.868e-3
-0.068, 6.782e-3
-0.067, 6.697e-3
-0.066, 6.613e-3
-0.065, 6.529e-3
-0.064, 6.446e-3
-0.063, 6.363e-3
-0.062, 6.280e-3
-0.061, 6.199e-3
-0.060, 6.118e-3
-0.059, 6.038e-3
-0.058, 5.959e-3
-0.057, 5.881e-3
-0.056, 5.802e-3
-0.055, 5.724e-3
-0.054, 5.647e-3
-0.053, 5.569e-3
-0.052, 5.492e-3
-0.051, 5.416e-3
-0.050, 5.341e-3
-0.049, 5.266e-3
-0.048, 5.191e-3
-0.047, 5.118e-3
-0.046, 5.045e-3
-0.045, 4.972e-3
-0.044, 4.899e-3
-0.043, 4.827e-3
-0.042, 4.754e-3
-0.041, 4.683e-3
-0.040, 4.613e-3
-0.039, 4.543e-3
-0.038, 4.473e-3
-0.037, 4.404e-3
-0.036, 4.336e-3
-0.035, 4.267e-3
-0.034, 4.199e-3
-0.033, 4.132e-3
-0.032, 4.065e-3
-0.031, 3.997e-3
-0.030, 3.930e-3
-0.029, 3.864e-3
-0.028, 3.798e-3
-0.027, 3.733e-3
-0.026, 3.668e-3
-0.025, 3.603e-3
-0.024, 3.539e-3
-0.023, 3.475e-3
-0.022, 3.412e-3
-0.021, 3.349e-3
-0.020, 3.287e-3
-0.019, 3.223e-3
-0.018, 3.161e-3
-0.017, 3.099e-3
-0.016, 3.038e-3
-0.015, 2.977e-3
-0.014, 2.916e-3
-0.013, 2.856e-3
-0.012, 2.797e-3
-0.011, 2.738e-3
-0.010, 2.679e-3
-0.009, 2.620e-3
-0.008, 2.562e-3
-0.007, 2.503e-3
-0.006, 2.444e-3
-0.005, 2.386e-3
-0.004, 2.329e-3
-0.003, 2.272e-3
-0.002, 2.215e-3
-0.001, 2.159e-3
-0.000, 2.102e-3
0.001, 2.045e-3
0.002, 1.990e-3
0.003, 1.935e-3
0.004, 1.880e-3
0.005, 1.826e-3
0.006, 1.771e-3
0.007, 1.718e-3
0.008, 1.664e-3
0.009, 1.609e-3
0.010, 1.556e-3
0.011, 1.503e-3
0.012, 1.451e-3
0.013, 1.399e-3
0.014, 1.347e-3
0.015, 1.295e-3
0.016, 1.245e-3
0.017, 1.194e-3
0.018, 1.143e-3
0.019, 1.092e-3
0.020, 1.042e-3
0.021, 9.918e-4
0.022, 9.421e-4
0.023, 8.923e-4
0.024, 8.421e-4
0.025, 7.930e-4
0.026, 7.441e-4
0.027, 6.955e-4
0.028, 6.477e-4
0.029, 5.999e-4
0.030, 5.521e-4
0.031, 5.044e-4
0.032, 4.570e-4
0.033, 4.100e-4
0.034, 3.635e-4
0.035, 3.171e-4
0.036, 2.712e-4
0.037, 2.255e-4
0.038, 1.797e-4
0.039, 1.343e-4
0.040, 8.840e-5
0.041, 4.288e-5
0.042, -1.496e-6
0.043, -4.630e-5
0.044, -9.035e-5
0.045, -1.341e-4
0.046, -1.780e-4
0.047, -2.214e-4
0.048, -2.649e-4
0.049, -3.076e-4
0.050, -3.490e-4
0.051, -3.917e-4
0.052, -4.345e-4
0.053, -4.765e-4
0.054, -5.179e-4
0.055, -5.596e-4
0.056, -6.009e-4
0.057, -6.421e-4
0.058, -6.835e-4
0.059, -7.250e-4
0.060, -7.654e-4
0.061, -8.056e-4
0.062, -8.458e-4
0.063, -8.853e-4
0.064, -9.245e-4
0.065, -9.641e-4
0.066, -1.003e-3
0.067, -1.042e-3
0.068, -1.081e-3
0.069, -1.119e-3
0.070, -1.157e-3
0.071, -1.196e-3
0.072, -1.234e-3
0.073, -1.271e-3
0.074, -1.308e-3
0.075, -1.345e-3
0.076, -1.382e-3
0.077, -1.419e-3
0.078, -1.456e-3
0.079, -1.493e-3
0.080, -1.529e-3
0.081, -1.565e-3
0.082, -1.601e-3
0.083, -1.637e-3
0.084, -1.672e-3
0.085, -1.706e-3
0.086, -1.742e-3
0.087, -1.776e-3
0.088, -1.811e-3
0.089, -1.846e-3
0.090, -1.879e-3
0.091, -1.912e-3
0.092, -1.946e-3
0.093, -1.979e-3
0.094, -2.013e-3
0.095, -2.045e-3
0.096, -2.078e-3
0.097, -2.111e-3
0.098, -2.143e-3
0.099, -2.176e-3
0.100, -2.208e-3
0.101, -2.240e-3
0.102, -2.273e-3
0.103, -2.305e-3
0.104, -2.337e-3
0.105, -2.368e-3
0.106, -2.398e-3
0.107, -2.429e-3
0.108, -2.460e-3
0.109, -2.490e-3
0.110, -2.520e-3
0.111, -2.550e-3
0.112, -2.580e-3
0.113, -2.610e-3
0.114, -2.639e-3
0.115, -2.669e-3
0.116, -2.698e-3
0.117, -2.726e-3
0.118, -2.755e-3
0.119, -2.784e-3
0.120, -2.812e-3
0.121, -2.840e-3
0.122, -2.868e-3
0.123, -2.896e-3
0.124, -2.924e-3
0.125, -2.951e-3
0.126, -2.978e-3
0.127, -3.005e-3
0.128, -3.033e-3
0.129, -3.061e-3
0.130, -3.087e-3
0.131, -3.114e-3
0.132, -3.140e-3
0.133, -3.166e-3
0.134, -3.192e-3
0.135, -3.218e-3
0.136, -3.244e-3
0.137, -3.269e-3
0.138, -3.295e-3
0.139, -3.320e-3
0.140, -3.345e-3
0.141, -3.369e-3
0.142, -3.394e-3
0.143, -3.419e-3
0.144, -3.443e-3
0.145, -3.466e-3
0.146, -3.490e-3
0.147, -3.514e-3
0.148, -3.538e-3
0.149, -3.561e-3
0.150, -3.585e-3
0.151, -3.608e-3
0.152, -3.631e-3
0.153, -3.654e-3
0.154, -3.677e-3
0.155, -3.700e-3
0.156, -3.722e-3
0.157, -3.745e-3
0.158, -3.767e-3
0.159, -3.789e-3
0.160, -3.811e-3
0.161, -3.834e-3
0.162, -3.856e-3
0.163, -3.878e-3
0.164, -3.899e-3
0.165, -3.920e-3
0.166, -3.942e-3
0.167, -3.962e-3
0.168, -3.983e-3
0.169, -4.004e-3
0.170, -4.024e-3
0.171, -4.045e-3
0.172, -4.065e-3
0.173, -4.085e-3
0.174, -4.106e-3
0.175, -4.126e-3
0.176, -4.146e-3
0.177, -4.165e-3
0.178, -4.185e-3
0.179, -4.205e-3
0.180, -4.224e-3
0.181, -4.243e-3
0.182, -4.262e-3
0.183, -4.281e-3
0.184, -4.300e-3
0.185, -4.319e-3
0.186, -4.338e-3
0.187, -4.356e-3
0.188, -4.375e-3
0.189, -4.393e-3
0.190, -4.411e-3
0.191, -4.429e-3
0.192, -4.447e-3
0.193, -4.465e-3
0.194, -4.483e-3
0.195, -4.501e-3
0.196, -4.518e-3
0.197, -4.535e-3
0.198, -4.553e-3
0.199, -4.570e-3
0.200, -4.588e-3
0.201, -4.605e-3
0.202, -4.622e-3
0.203, -4.639e-3
0.204, -4.656e-3
0.205, -4.673e-3
0.206, -4.690e-3
0.207, -4.707e-3
0.208, -4.723e-3
0.209, -4.740e-3
0.210, -4.756e-3
0.211, -4.772e-3
0.212, -4.788e-3
0.213, -4.805e-3
0.214, -4.820e-3
0.215, -4.836e-3
0.216, -4.852e-3
0.217, -4.868e-3
0.218, -4.883e-3
0.219, -4.899e-3
0.220, -4.914e-3
0.221, -4.929e-3
0.222, -4.945e-3
0.223, -4.960e-3
0.224, -4.975e-3
0.225, -4.991e-3
0.226, -5.006e-3
0.227, -5.020e-3
0.228, -5.034e-3
0.229, -5.049e-3
0.230, -5.064e-3
0.231, -5.079e-3
0.232, -5.093e-3
0.233, -5.108e-3
0.234, -5.122e-3
0.235, -5.136e-3
0.236, -5.151e-3
0.237, -5.165e-3
0.238, -5.180e-3
0.239, -5.193e-3
0.240, -5.207e-3
0.241, -5.221e-3
0.242, -5.235e-3
0.243, -5.249e-3
0.244, -5.263e-3
0.245, -5.277e-3
0.246, -5.290e-3
0.247, -5.304e-3
0.248, -5.318e-3
0.249, -5.331e-3
0.250, -5.345e-3
0.251, -5.358e-3
0.252, -5.372e-3
0.253, -5.385e-3
0.254, -5.399e-3
0.255, -5.413e-3
0.256, -5.426e-3
0.257, -5.440e-3
0.258, -5.453e-3
0.259, -5.466e-3
0.260, -5.479e-3
0.261, -5.491e-3
0.262, -5.505e-3
0.263, -5.518e-3
0.264, -5.530e-3
0.265, -5.543e-3
0.266, -5.556e-3
0.267, -5.568e-3
0.268, -5.581e-3
0.269, -5.594e-3
0.270, -5.606e-3
0.271, -5.619e-3
0.272, -5.631e-3
0.273, -5.644e-3
0.274, -5.656e-3
0.275, -5.669e-3
0.276, -5.682e-3
0.277, -5.694e-3
0.278, -5.706e-3
0.279, -5.718e-3
0.280, -5.731e-3
0.281, -5.743e-3
0.282, -5.756e-3
0.283, -5.768e-3
0.284, -5.780e-3
0.285, -5.793e-3
0.286, -5.805e-3
0.287, -5.817e-3
0.288, -5.829e-3
0.289, -5.841e-3
0.290, -5.853e-3
0.291, -5.865e-3
0.292, -5.877e-3
0.293, -5.889e-3
0.294, -5.902e-3
0.295, -5.913e-3
0.296, -5.926e-3
0.297, -5.938e-3
0.298, -5.950e-3
0.299, -5.962e-3
0.300, -5.973e-3
0.301, -5.985e-3
0.302, -5.997e-3
0.303, -6.009e-3
0.304, -6.021e-3
0.305, -6.033e-3
0.306, -6.045e-3
0.307, -6.057e-3
0.308, -6.069e-3
0.309, -6.081e-3
0.310, -6.093e-3
0.311, -6.105e-3
0.312, -6.117e-3
0.313, -6.129e-3
0.314, -6.141e-3
0.315, -6.153e-3
0.316, -6.165e-3
0.317, -6.177e-3
0.318, -6.189e-3
0.319, -6.202e-3
0.320, -6.214e-3
0.321, -6.226e-3
0.322, -6.238e-3
0.323, -6.250e-3
0.324, -6.262e-3
0.325, -6.273e-3
0.326, -6.286e-3
0.327, -6.298e-3
0.328, -6.310e-3
0.329, -6.322e-3
0.330, -6.334e-3
0.331, -6.346e-3
0.332, -6.358e-3
0.333, -6.370e-3
0.334, -6.382e-3
0.335, -6.394e-3
0.336, -6.406e-3
0.337, -6.418e-3
0.338, -6.430e-3
0.339, -6.442e-3
0.340, -6.455e-3
0.341, -6.467e-3
0.342, -6.479e-3
0.343, -6.491e-3
0.344, -6.503e-3
0.345, -6.516e-3
0.346, -6.528e-3
0.347, -6.540e-3
0.348, -6.553e-3
0.349, -6.565e-3
0.350, -6.577e-3
0.351, -6.589e-3
0.352, -6.600e-3
0.353, -6.613e-3
0.354, -6.626e-3
0.355, -6.638e-3
0.356, -6.650e-3
0.357, -6.662e-3
0.358, -6.675e-3
0.359, -6.688e-3
0.360, -6.700e-3
0.361, -6.713e-3
0.362, -6.725e-3
0.363, -6.738e-3
0.364, -6.751e-3
0.365, -6.763e-3
0.366, -6.776e-3
0.367, -6.788e-3
0.368, -6.801e-3
0.369, -6.814e-3
0.370, -6.826e-3
0.371, -6.839e-3
0.372, -6.852e-3
0.373, -6.864e-3
0.374, -6.877e-3
0.375, -6.890e-3
0.376, -6.903e-3
0.377, -6.916e-3
0.378, -6.929e-3
0.379, -6.942e-3
0.380, -6.955e-3
0.381, -6.969e-3
0.382, -6.982e-3
0.383, -6.995e-3
0.384, -7.008e-3
0.385, -7.021e-3
0.386, -7.034e-3
0.387, -7.047e-3
0.388, -7.060e-3
0.389, -7.074e-3
0.390, -7.087e-3
0.391, -7.100e-3
0.392, -7.113e-3
0.393, -7.126e-3
0.394, -7.139e-3
0.395, -7.153e-3
0.396, -7.166e-3
0.397, -7.179e-3
0.398, -7.192e-3
0.399, -7.205e-3
0.400, -7.219e-3
0.401, -7.232e-3
0.402, -7.245e-3
0.403, -7.258e-3
0.404, -7.272e-3
0.405, -7.285e-3
0.406, -7.298e-3
0.407, -7.311e-3
0.408, -7.325e-3
0.409, -7.339e-3
0.410, -7.352e-3
0.411, -7.366e-3
0.412, -7.379e-3
0.413, -7.393e-3
0.414, -7.406e-3
0.415, -7.420e-3
0.416, -7.433e-3
0.417, -7.447e-3
0.418, -7.460e-3
0.419, -7.474e-3
0.420, -7.487e-3
0.421, -7.500e-3
0.422, -7.514e-3
0.423, -7.528e-3
0.424, -7.541e-3
0.425, -7.554e-3
0.426, -7.568e-3
0.427, -7.581e-3
0.428, -7.595e-3
0.429, -7.609e-3
0.430, -7.622e-3
0.431, -7.635e-3
0.432, -7.649e-3
0.433, -7.663e-3
0.434, -7.676e-3
0.435, -7.690e-3
0.436, -7.704e-3
0.437, -7.717e-3
0.438, -7.731e-3
0.439, -7.744e-3
0.440, -7.757e-3
0.441, -7.771e-3
0.442, -7.785e-3
0.443, -7.798e-3
0.444, -7.812e-3
0.445, -7.825e-3
0.446, -7.838e-3
0.447, -7.852e-3
0.448, -7.865e-3
0.449, -7.879e-3
0.450, -7.892e-3
0.451, -7.905e-3
0.452, -7.918e-3
0.453, -7.932e-3
0.454, -7.945e-3
0.455, -7.958e-3
0.456, -7.971e-3
0.457, -7.984e-3
0.458, -7.997e-3
0.459, -8.011e-3
0.460, -8.023e-3
0.461, -8.037e-3
0.462, -8.050e-3
0.463, -8.063e-3
0.464, -8.076e-3
0.465, -8.089e-3
0.466, -8.102e-3
0.467, -8.115e-3
0.468, -8.128e-3
0.469, -8.140e-3
0.470, -8.152e-3
0.471, -8.165e-3
0.472, -8.177e-3
0.473, -8.190e-3
0.474, -8.202e-3
0.475, -8.215e-3
0.476, -8.228e-3
0.477, -8.240e-3
0.478, -8.253e-3
0.479, -8.265e-3
0.480, -8.278e-3
0.481, -8.290e-3
0.482, -8.302e-3
0.483, -8.315e-3
0.484, -8.327e-3
0.485, -8.340e-3
0.486, -8.352e-3
0.487, -8.364e-3
0.488, -8.376e-3
0.489, -8.389e-3
0.490, -8.400e-3
0.491, -8.413e-3
0.492, -8.425e-3
0.493, -8.437e-3
0.494, -8.449e-3
0.495, -8.461e-3
0.496, -8.473e-3
0.497, -8.485e-3
0.498, -8.497e-3
0.499, -8.508e-3
0.500, -8.520e-3
0.501, -8.532e-3
0.502, -8.544e-3
0.503, -8.556e-3
0.504, -8.567e-3
0.505, -8.579e-3
0.506, -8.590e-3
0.507, -8.602e-3
0.508, -8.613e-3
0.509, -8.624e-3
0.510, -8.636e-3
0.511, -8.647e-3
0.512, -8.659e-3
0.513, -8.670e-3
0.514, -8.681e-3
0.515, -8.692e-3
0.516, -8.703e-3
0.517, -8.714e-3
0.518, -8.725e-3
0.519, -8.736e-3
0.520, -8.747e-3
0.521, -8.758e-3
0.522, -8.768e-3
0.523, -8.779e-3
0.524, -8.790e-3
0.525, -8.801e-3
0.526, -8.811e-3
0.527, -8.821e-3
0.528, -8.832e-3
0.529, -8.842e-3
0.530, -8.853e-3
0.531, -8.863e-3
0.532, -8.873e-3
0.533, -8.883e-3
0.534, -8.894e-3
0.535, -8.904e-3
0.536, -8.914e-3
0.537, -8.925e-3
0.538, -8.935e-3
0.539, -8.945e-3
0.540, -8.955e-3
0.541, -8.965e-3
0.542, -8.975e-3
0.543, -8.984e-3
0.544, -8.995e-3
0.545, -9.004e-3
0.546, -9.014e-3
0.547, -9.024e-3
0.548, -9.034e-3
0.549, -9.043e-3
0.550, -9.053e-3
0.551, -9.062e-3
0.552, -9.071e-3
0.553, -9.081e-3
0.554, -9.090e-3
0.555, -9.100e-3
0.556, -9.109e-3
0.557, -9.118e-3
0.558, -9.128e-3
0.559, -9.136e-3
0.560, -9.145e-3
0.561, -9.155e-3
0.562, -9.164e-3
0.563, -9.173e-3
0.564, -9.182e-3
0.565, -9.191e-3
0.566, -9.200e-3
0.567, -9.209e-3
0.568, -9.217e-3
0.569, -9.226e-3
0.570, -9.235e-3
0.571, -9.244e-3
0.572, -9.252e-3
0.573, -9.260e-3
0.574, -9.269e-3
0.575, -9.277e-3
0.576, -9.285e-3
0.577, -9.294e-3
0.578, -9.302e-3
0.579, -9.310e-3
0.580, -9.318e-3
0.581, -9.327e-3
0.582, -9.335e-3
0.583, -9.344e-3
0.584, -9.352e-3
0.585, -9.359e-3
0.586, -9.367e-3
0.587, -9.375e-3
0.588, -9.382e-3
0.589, -9.390e-3
0.590, -9.398e-3
0.591, -9.405e-3
0.592, -9.413e-3
0.593, -9.421e-3
0.594, -9.428e-3
0.595, -9.435e-3
0.596, -9.443e-3
0.597, -9.450e-3
0.598, -9.457e-3
0.599, -9.463e-3
0.600, -9.471e-3
0.601, -9.477e-3
0.602, -9.484e-3
0.603, -9.492e-3
0.604, -9.498e-3
0.605, -9.505e-3
0.606, -9.512e-3
0.607, -9.519e-3
0.608, -9.525e-3
0.609, -9.532e-3
0.610, -9.538e-3
0.611, -9.545e-3
0.612, -9.552e-3
0.613, -9.558e-3
0.614, -9.564e-3
0.615, -9.571e-3
0.616, -9.577e-3
0.617, -9.583e-3
0.618, -9.589e-3
0.619, -9.596e-3
0.620, -9.602e-3
0.621, -9.608e-3
0.622, -9.614e-3
0.623, -9.620e-3
0.624, -9.626e-3
0.625, -9.631e-3
0.626, -9.637e-3
0.627, -9.643e-3
0.628, -9.648e-3
0.629, -9.654e-3
0.630, -9.660e-3
0.631, -9.665e-3
0.632, -9.671e-3
0.633, -9.676e-3
0.634, -9.682e-3
0.635, -9.687e-3
0.636, -9.693e-3
0.637, -9.698e-3
0.638, -9.703e-3
0.639, -9.708e-3
0.640, -9.713e-3
0.641, -9.718e-3
0.642, -9.722e-3
0.643, -9.726e-3
0.644, -9.731e-3
0.645, -9.735e-3
0.646, -9.740e-3
0.647, -9.745e-3
0.648, -9.749e-3
0.649, -9.754e-3
0.650, -9.759e-3
0.651, -9.763e-3
0.652, -9.768e-3
0.653, -9.772e-3
0.654, -9.776e-3
0.655, -9.781e-3
0.656, -9.785e-3
0.657, -9.789e-3
0.658, -9.793e-3
0.659, -9.798e-3
0.660, -9.802e-3
0.661, -9.806e-3
0.662, -9.810e-3
0.663, -9.815e-3
0.664, -9.819e-3
0.665, -9.823e-3
0.666, -9.827e-3
0.667, -9.830e-3
0.668, -9.835e-3
0.669, -9.838e-3
0.670, -9.842e-3
0.671, -9.845e-3
0.672, -9.849e-3
0.673, -9.853e-3
0.674, -9.855e-3
0.675, -9.859e-3
0.676, -9.863e-3
0.677, -9.866e-3
0.678, -9.870e-3
0.679, -9.873e-3
0.680, -9.877e-3
0.681, -9.880e-3
0.682, -9.883e-3
0.683, -9.886e-3
0.684, -9.889e-3
0.685, -9.892e-3
0.686, -9.895e-3
0.687, -9.898e-3
0.688, -9.901e-3
0.689, -9.904e-3
0.690, -9.907e-3
0.691, -9.910e-3
0.692, -9.913e-3
0.693, -9.916e-3
0.694, -9.918e-3
0.695, -9.921e-3
0.696, -9.923e-3
0.697, -9.926e-3
0.698, -9.928e-3
0.699, -9.931e-3
0.700, -9.933e-3
0.701, -9.936e-3
0.702, -9.938e-3
0.703, -9.941e-3
0.704, -9.943e-3
0.705, -9.945e-3
0.706, -9.947e-3
0.707, -9.950e-3
0.708, -9.952e-3
0.709, -9.953e-3
0.710, -9.956e-3
0.711, -9.958e-3
0.712, -9.960e-3
0.713, -9.961e-3
0.714, -9.963e-3
0.715, -9.965e-3
0.716, -9.967e-3
0.717, -9.970e-3
0.718, -9.972e-3
0.719, -9.973e-3
0.720, -9.975e-3
0.721, -9.977e-3
0.722, -9.978e-3
0.723, -9.979e-3
0.724, -9.981e-3
0.725, -9.982e-3
0.726, -9.983e-3
0.727, -9.984e-3
0.728, -9.986e-3
0.729, -9.987e-3
0.730, -9.988e-3
0.731, -9.989e-3
0.732, -9.991e-3
0.733, -9.991e-3
0.734, -9.992e-3
0.735, -9.993e-3
0.736, -9.994e-3
0.737, -9.995e-3
0.738, -9.996e-3
0.739, -9.997e-3
0.740, -9.998e-3
0.741, -9.999e-3
0.742, -1.000e-2
0.743, -1.000e-2
0.744, -1.000e-2
0.745, -1.000e-2
0.746, -1.000e-2
0.747, -1.000e-2
0.748, -1.000e-2
0.749, -1.001e-2
0.750, -1.001e-2
0.751, -1.001e-2
0.752, -1.001e-2
0.753, -1.001e-2
0.754, -1.001e-2
0.755, -1.001e-2
0.756, -1.001e-2
0.757, -1.001e-2
0.758, -1.001e-2
0.759, -1.001e-2
0.760, -1.001e-2
0.761, -1.001e-2
0.762, -1.001e-2
0.763, -1.001e-2
0.764, -1.001e-2
0.765, -1.001e-2
0.766, -1.001e-2
0.767, -1.001e-2
0.768, -1.001e-2
0.769, -1.001e-2
0.770, -1.001e-2
0.771, -1.001e-2
0.772, -1.001e-2
0.773, -1.001e-2
0.774, -1.001e-2
0.775, -1.001e-2
0.776, -1.001e-2
0.777, -1.001e-2
0.778, -1.001e-2
0.779, -1.001e-2
0.780, -1.001e-2
0.781, -1.001e-2
0.782, -1.001e-2
0.783, -1.001e-2
0.784, -1.000e-2
0.785, -1.000e-2
0.786, -1.000e-2
0.787, -1.000e-2
0.788, -1.000e-2
0.789, -1.000e-2
0.790, -1.000e-2
0.791, -1.000e-2
0.792, -1.000e-2
0.793, -1.000e-2
0.794, -9.999e-3
0.795, -9.998e-3
0.796, -9.997e-3
0.797, -9.996e-3
0.798, -9.995e-3
0.799, -9.994e-3
0.800, -9.993e-3
0.801, -9.992e-3
0.802, -9.991e-3
0.803, -9.990e-3
0.804, -9.989e-3
0.805, -9.988e-3
0.806, -9.987e-3
0.807, -9.986e-3
0.808, -9.984e-3
0.809, -9.983e-3
0.810, -9.982e-3
0.811, -9.981e-3
0.812, -9.980e-3
0.813, -9.979e-3
0.814, -9.978e-3
0.815, -9.976e-3
0.816, -9.975e-3
0.817, -9.974e-3
0.818, -9.973e-3
0.819, -9.973e-3
0.820, -9.973e-3
0.821, -9.971e-3
0.822, -9.970e-3
0.823, -9.969e-3
0.824, -9.967e-3
0.825, -9.966e-3
0.826, -9.965e-3
0.827, -9.964e-3
0.828, -9.962e-3
0.829, -9.960e-3
0.830, -9.959e-3
0.831, -9.957e-3
0.832, -9.956e-3
0.833, -9.954e-3
0.834, -9.953e-3
0.835, -9.951e-3
0.836, -9.950e-3
0.837, -9.948e-3
0.838, -9.946e-3
0.839, -9.945e-3
0.840, -9.944e-3
0.841, -9.942e-3
0.842, -9.941e-3
0.843, -9.940e-3
0.844, -9.938e-3
0.845, -9.937e-3
0.846, -9.935e-3
0.847, -9.934e-3
0.848, -9.932e-3
0.849, -9.931e-3
0.850, -9.930e-3
0.851, -9.929e-3
0.852, -9.927e-3
0.853, -9.925e-3
0.854, -9.924e-3
0.855, -9.923e-3
0.856, -9.921e-3
0.857, -9.920e-3
0.858, -9.919e-3
0.859, -9.917e-3
0.860, -9.916e-3
0.861, -9.915e-3
0.862, -9.914e-3
0.863, -9.913e-3
0.864, -9.912e-3
0.865, -9.911e-3
0.866, -9.910e-3
0.867, -9.909e-3
0.868, -9.907e-3
0.869, -9.906e-3
0.870, -9.905e-3
0.871, -9.905e-3
0.872, -9.904e-3
0.873, -9.903e-3
0.874, -9.902e-3
0.875, -9.901e-3
0.876, -9.900e-3
0.877, -9.900e-3
0.878, -9.899e-3
0.879, -9.898e-3
0.880, -9.897e-3
0.881, -9.897e-3
0.882, -9.896e-3
0.883, -9.895e-3
0.884, -9.895e-3
0.885, -9.894e-3
0.886, -9.893e-3
0.887, -9.893e-3
0.888, -9.893e-3
0.889, -9.893e-3
0.890, -9.892e-3
0.891, -9.892e-3
0.892, -9.892e-3
0.893, -9.892e-3
0.894, -9.892e-3
0.895, -9.891e-3
0.896, -9.891e-3
0.897, -9.892e-3
0.898, -9.891e-3
0.899, -9.891e-3
0.900, -9.891e-3
0.901, -9.891e-3
0.902, -9.891e-3
0.903, -9.892e-3
0.904, -9.892e-3
0.905, -9.893e-3
0.906, -9.893e-3
0.907, -9.894e-3
0.908, -9.895e-3
0.909, -9.895e-3
0.910, -9.896e-3
0.911, -9.896e-3
0.912, -9.897e-3
0.913, -9.898e-3
0.914, -9.899e-3
0.915, -9.900e-3
0.916, -9.901e-3
0.917, -9.902e-3
0.918, -9.903e-3
0.919, -9.904e-3
0.920, -9.906e-3
0.921, -9.907e-3
0.922, -9.909e-3
0.923, -9.911e-3
0.924, -9.913e-3
0.925, -9.914e-3
0.926, -9.916e-3
0.927, -9.917e-3
0.928, -9.920e-3
0.929, -9.922e-3
0.930, -9.924e-3
0.931, -9.926e-3
0.932, -9.928e-3
0.933, -9.930e-3
0.934, -9.933e-3
0.935, -9.935e-3
0.936, -9.937e-3
0.937, -9.940e-3
0.938, -9.942e-3
0.939, -9.945e-3
0.940, -9.948e-3
0.941, -9.951e-3
0.942, -9.955e-3
0.943, -9.958e-3
0.944, -9.961e-3
0.945, -9.964e-3
0.946, -9.967e-3
0.947, -9.971e-3
0.948, -9.975e-3
0.949, -9.979e-3
0.950, -9.982e-3
0.951, -9.986e-3
0.952, -9.990e-3
0.953, -9.993e-3
0.954, -9.998e-3
0.955, -1.000e-2
0.956, -1.001e-2
0.957, -1.001e-2
0.958, -1.002e-2
0.959, -1.002e-2
0.960, -1.002e-2
0.961, -1.003e-2
0.962, -1.003e-2
0.963, -1.004e-2
0.964, -1.004e-2
0.965, -1.005e-2
0.966, -1.005e-2
0.967, -1.006e-2
0.968, -1.006e-2
0.969, -1.007e-2
0.970, -1.007e-2
0.971, -1.008e-2
0.972, -1.009e-2
0.973, -1.009e-2
0.974, -1.010e-2
0.975, -1.010e-2
0.976, -1.011e-2
0.977, -1.012e-2
0.978, -1.012e-2
0.979, -1.013e-2
0.980, -1.013e-2
0.981, -1.014e-2
0.982, -1.015e-2
0.983, -1.015e-2
0.984, -1.016e-2
0.985, -1.017e-2
0.986, -1.017e-2
0.987, -1.018e-2
0.988, -1.019e-2
0.989, -1.019e-2
0.990, -1.020e-2
0.991, -1.021e-2
0.992, -1.022e-2
0.993, -1.022e-2
0.994, -1.023e-2
0.995, -1.024e-2
0.996, -1.025e-2
0.997, -1.026e-2
0.998, -1.026e-2
0.999, -1.027e-2
1.000, -1.028e-2
1.001, -1.029e-2
1.002, -1.030e-2
1.003, -1.030e-2
1.004, -1.031e-2
1.005, -1.032e-2
1.006, -1.033e-2
1.007, -1.034e-2
1.008, -1.035e-2
1.009, -1.036e-2
1.010, -1.037e-2
1.011, -1.038e-2
1.012, -1.039e-2
1.013, -1.039e-2
1.014, -1.040e-2
1.015, -1.041e-2
1.016, -1.042e-2
1.017, -1.043e-2
1.018, -1.044e-2
1.019, -1.045e-2
1.020, -1.046e-2
1.021, -1.047e-2
1.022, -1.049e-2
1.023, -1.050e-2
1.024, -1.051e-2
1.025, -1.052e-2
1.026, -1.053e-2
1.027, -1.054e-2
1.028, -1.055e-2
1.029, -1.056e-2
1.030, -1.057e-2
1.031, -1.058e-2
1.032, -1.060e-2
1.033, -1.061e-2
1.034, -1.062e-2
1.035, -1.063e-2
1.036, -1.064e-2
1.037, -1.065e-2
1.038, -1.067e-2
1.039, -1.068e-2
1.040, -1.069e-2
1.041, -1.070e-2
1.042, -1.071e-2
1.043, -1.073e-2
1.044, -1.074e-2
1.045, -1.075e-2
1.046, -1.076e-2
1.047, -1.078e-2
1.048, -1.079e-2
1.049, -1.080e-2
1.050, -1.082e-2
1.051, -1.083e-2
1.052, -1.084e-2
1.053, -1.085e-2
1.054, -1.087e-2
1.055, -1.088e-2
1.056, -1.090e-2
1.057, -1.091e-2
1.058, -1.092e-2
1.059, -1.094e-2
1.060, -1.095e-2
1.061, -1.096e-2
1.062, -1.098e-2
1.063, -1.099e-2
1.064, -1.101e-2
1.065, -1.102e-2
1.066, -1.104e-2
1.067, -1.105e-2
1.068, -1.106e-2
1.069, -1.108e-2
1.070, -1.109e-2
1.071, -1.111e-2
1.072, -1.112e-2
1.073, -1.114e-2
1.074, -1.115e-2
1.075, -1.117e-2
1.076, -1.118e-2
1.077, -1.120e-2
1.078, -1.121e-2
1.079, -1.123e-2
1.080, -1.124e-2
1.081, -1.126e-2
1.082, -1.128e-2
1.083, -1.129e-2
1.084, -1.131e-2
1.085, -1.132e-2
1.086, -1.134e-2
1.087, -1.135e-2
1.088, -1.137e-2
1.089, -1.138e-2
1.090, -1.140e-2
1.091, -1.142e-2
1.092, -1.143e-2
1.093, -1.145e-2
1.094, -1.146e-2
1.095, -1.148e-2
1.096, -1.150e-2
1.097, -1.151e-2
1.098, -1.153e-2
1.099, -1.155e-2
1.100, -1.154e-2
1.099, -1.141e-2
1.098, -1.125e-2
1.097, -1.110e-2
1.096, -1.094e-2
1.095, -1.079e-2
1.094, -1.064e-2
1.093, -1.049e-2
1.092, -1.035e-2
1.091, -1.020e-2
1.090, -1.006e-2
1.089, -9.915e-3
1.088, -9.774e-3
1.087, -9.635e-3
1.086, -9.497e-3
1.085, -9.359e-3
1.084, -9.222e-3
1.083, -9.087e-3
1.082, -8.953e-3
1.081, -8.820e-3
1.080, -8.688e-3
1.079, -8.557e-3
1.078, -8.427e-3
1.077, -8.298e-3
1.076, -8.171e-3
1.075, -8.044e-3
1.074, -7.918e-3
1.073, -7.794e-3
1.072, -7.669e-3
1.071, -7.546e-3
1.070, -7.424e-3
1.069, -7.303e-3
1.068, -7.183e-3
1.067, -7.063e-3
1.066, -6.944e-3
1.065, -6.826e-3
1.064, -6.710e-3
1.063, -6.594e-3
1.062, -6.480e-3
1.061, -6.365e-3
1.060, -6.252e-3
1.059, -6.138e-3
1.058, -6.026e-3
1.057, -5.916e-3
1.056, -5.805e-3
1.055, -5.695e-3
1.054, -5.586e-3
1.053, -5.478e-3
1.052, -5.370e-3
1.051, -5.263e-3
1.050, -5.157e-3
1.049, -5.052e-3
1.048, -4.948e-3
1.047, -4.845e-3
1.046, -4.742e-3
1.045, -4.639e-3
1.044, -4.537e-3
1.043, -4.436e-3
1.042, -4.335e-3
1.041, -4.236e-3
1.040, -4.137e-3
1.039, -4.038e-3
1.038, -3.941e-3
1.037, -3.844e-3
1.036, -3.746e-3
1.035, -3.651e-3
1.034, -3.556e-3
1.033, -3.462e-3
1.032, -3.369e-3
1.031, -3.276e-3
1.030, -3.184e-3
1.029, -3.091e-3
1.028, -2.999e-3
1.027, -2.909e-3
1.026, -2.819e-3
1.025, -2.729e-3
1.024, -2.640e-3
1.023, -2.551e-3
1.022, -2.464e-3
1.021, -2.377e-3
1.020, -2.290e-3
1.019, -2.203e-3
1.018, -2.117e-3
1.017, -2.032e-3
1.016, -1.948e-3
1.015, -1.865e-3
1.014, -1.782e-3
1.013, -1.699e-3
1.012, -1.617e-3
1.011, -1.536e-3
1.010, -1.454e-3
1.009, -1.373e-3
1.008, -1.293e-3
1.007, -1.214e-3
1.006, -1.135e-3
1.005, -1.056e-3
1.004, -9.784e-4
1.003, -9.010e-4
1.002, -8.243e-4
1.001, -7.479e-4
1.000, -6.711e-4
0.999, -5.955e-4
0.998, -5.205e-4
0.997, -4.462e-4
0.996, -3.723e-4
0.995, -3.001e-4
0.994, -2.273e-4
0.993, -1.551e-4
0.992, -8.344e-5
0.991, -1.169e-5
0.990, 5.929e-5
0.989, 1.310e-4
0.988, 2.008e-4
0.987, 2.701e-4
0.986, 3.392e-4
0.985, 4.077e-4
0.984, 4.758e-4
0.983, 5.439e-4
0.982, 6.108e-4
0.981, 6.776e-4
0.980, 7.436e-4
0.979, 8.097e-4
0.978, 8.758e-4
0.977, 9.413e-4
0.976, 1.006e-3
0.975, 1.069e-3
0.974, 1.133e-3
0.973, 1.197e-3
0.972, 1.259e-3
0.971, 1.321e-3
0.970, 1.383e-3
0.969, 1.443e-3
0.968, 1.505e-3
0.967, 1.565e-3
0.966, 1.626e-3
0.965, 1.687e-3
0.964, 1.746e-3
0.963, 1.805e-3
0.962, 1.864e-3
0.961, 1.921e-3
0.960, 1.979e-3
0.959, 2.037e-3
0.958, 2.093e-3
0.957, 2.150e-3
0.956, 2.206e-3
0.955, 2.262e-3
0.954, 2.317e-3
0.953, 2.372e-3
0.952, 2.427e-3
0.951, 2.482e-3
0.950, 2.535e-3
0.949, 2.589e-3
0.948, 2.642e-3
0.947, 2.694e-3
0.946, 2.747e-3
0.945, 2.798e-3
0.944, 2.849e-3
0.943, 2.900e-3
0.942, 2.951e-3
0.941, 3.001e-3
0.940, 3.051e-3
0.939, 3.100e-3
0.938, 3.150e-3
0.937, 3.198e-3
0.936, 3.248e-3
0.935, 3.296e-3
0.934, 3.344e-3
0.933, 3.391e-3
0.932, 3.438e-3
0.931, 3.485e-3
0.930, 3.531e-3
0.929, 3.577e-3
0.928, 3.623e-3
0.927, 3.668e-3
0.926, 3.713e-3
0.925, 3.758e-3
0.924, 3.802e-3
0.923, 3.846e-3
0.922, 3.890e-3
0.921, 3.934e-3
0.920, 3.977e-3
0.919, 4.020e-3
0.918, 4.063e-3
0.917, 4.105e-3
0.916, 4.146e-3
0.915, 4.188e-3
0.914, 4.228e-3
0.913, 4.269e-3
0.912, 4.309e-3
0.911, 4.349e-3
0.910, 4.388e-3
0.909, 4.427e-3
0.908, 4.466e-3
0.907, 4.504e-3
0.906, 4.543e-3
0.905, 4.581e-3
0.904, 4.618e-3
0.903, 4.656e-3
0.902, 4.693e-3
0.901, 4.730e-3
0.900, 4.766e-3
0.899, 4.803e-3
0.898, 4.839e-3
0.897, 4.875e-3
0.896, 4.910e-3
0.895, 4.945e-3
0.894, 4.980e-3
0.893, 5.014e-3
0.892, 5.048e-3
0.891, 5.082e-3
0.890, 5.115e-3
0.889, 5.149e-3
0.888, 5.181e-3
0.887, 5.214e-3
0.886, 5.246e-3
0.885, 5.278e-3
0.884, 5.310e-3
0.883, 5.341e-3
0.882, 5.372e-3
0.881, 5.403e-3
0.880, 5.433e-3
0.879, 5.464e-3
0.878, 5.493e-3
0.877, 5.523e-3
0.876, 5.553e-3
0.875, 5.583e-3
0.874, 5.612e-3
0.873, 5.641e-3
0.872, 5.669e-3
0.871, 5.696e-3
0.870, 5.724e-3
0.869, 5.752e-3
0.868, 5.779e-3
0.867, 5.806e-3
0.866, 5.833e-3
0.865, 5.859e-3
0.864, 5.885e-3
0.863, 5.911e-3
0.862, 5.937e-3
0.861, 5.960e-3
0.860, 5.985e-3
0.859, 6.010e-3
0.858, 6.035e-3
0.857, 6.059e-3
0.856, 6.083e-3
0.855, 6.106e-3
0.854, 6.130e-3
0.853, 6.153e-3
0.852, 6.175e-3
0.851, 6.198e-3
0.850, 6.221e-3
0.849, 6.242e-3
0.848, 6.264e-3
0.847, 6.286e-3
0.846, 6.307e-3
0.845, 6.329e-3
0.844, 6.350e-3
0.843, 6.371e-3
0.842, 6.392e-3
0.841, 6.412e-3
0.840, 6.432e-3
0.839, 6.451e-3
0.838, 6.471e-3
0.837, 6.490e-3
0.836, 6.509e-3
0.835, 6.527e-3
0.834, 6.546e-3
0.833, 6.563e-3
0.832, 6.581e-3
0.831, 6.599e-3
0.830, 6.616e-3
0.829, 6.634e-3
0.828, 6.650e-3
0.827, 6.667e-3
0.826, 6.683e-3
0.825, 6.700e-3
0.824, 6.716e-3
0.823, 6.731e-3
0.822, 6.746e-3
0.821, 6.762e-3
0.820, 6.778e-3
0.819, 6.794e-3
0.818, 6.810e-3
0.817, 6.823e-3
0.816, 6.838e-3
0.815, 6.852e-3
0.814, 6.866e-3
0.813, 6.879e-3
0.812, 6.893e-3
0.811, 6.905e-3
0.810, 6.918e-3
0.809, 6.931e-3
0.808, 6.943e-3
0.807, 6.955e-3
0.806, 6.967e-3
0.805, 6.979e-3
0.804, 6.990e-3
0.803, 7.001e-3
0.802, 7.012e-3
0.801, 7.023e-3
0.800, 7.034e-3
0.799, 7.045e-3
0.798, 7.055e-3
0.797, 7.066e-3
0.796, 7.075e-3
0.795, 7.085e-3
0.794, 7.094e-3
0.793, 7.104e-3
0.792, 7.114e-3
0.791, 7.122e-3
0.790, 7.131e-3
0.789, 7.139e-3
0.788, 7.149e-3
0.787, 7.157e-3
0.786, 7.165e-3
0.785, 7.173e-3
0.784, 7.181e-3
0.783, 7.189e-3
0.782, 7.196e-3
0.781, 7.203e-3
0.780, 7.210e-3
0.779, 7.217e-3
0.778, 7.224e-3
0.777, 7.230e-3
0.776, 7.236e-3
0.775, 7.243e-3
0.774, 7.249e-3
0.773, 7.255e-3
0.772, 7.260e-3
0.771, 7.266e-3
0.770, 7.271e-3
0.769, 7.277e-3
0.768, 7.282e-3
0.767, 7.287e-3
0.766, 7.292e-3
0.765, 7.296e-3
0.764, 7.301e-3
0.763, 7.305e-3
0.762, 7.310e-3
0.761, 7.314e-3
0.760, 7.318e-3
0.759, 7.322e-3
0.758, 7.326e-3
0.757, 7.329e-3
0.756, 7.333e-3
0.755, 7.336e-3
0.754, 7.339e-3
0.753, 7.342e-3
0.752, 7.345e-3
0.751, 7.348e-3
0.750, 7.351e-3
0.749, 7.353e-3
0.748, 7.356e-3
0.747, 7.358e-3
0.746, 7.361e-3
0.745, 7.363e-3
0.744, 7.365e-3
0.743, 7.367e-3
0.742, 7.369e-3
0.741, 7.371e-3
0.740, 7.373e-3
0.739, 7.375e-3
0.738, 7.377e-3
0.737, 7.378e-3
0.736, 7.380e-3
0.735, 7.381e-3
0.734, 7.382e-3
0.733, 7.383e-3
0.732, 7.384e-3
0.731, 7.385e-3
0.730, 7.386e-3
0.729, 7.387e-3
0.728, 7.388e-3
0.727, 7.388e-3
0.726, 7.389e-3
0.725, 7.390e-3
0.724, 7.390e-3
0.723, 7.391e-3
0.722, 7.391e-3
0.721, 7.392e-3
0.720, 7.392e-3
0.719, 7.392e-3
0.718, 7.392e-3
0.717, 7.393e-3
0.716, 7.393e-3
0.715, 7.393e-3
0.714, 7.393e-3
0.713, 7.393e-3
0.712, 7.393e-3
0.711, 7.393e-3
0.710, 7.393e-3
0.709, 7.393e-3
0.708, 7.393e-3
0.707, 7.392e-3
0.706, 7.392e-3
0.705, 7.392e-3
0.704, 7.391e-3
0.703, 7.391e-3
0.702, 7.390e-3
0.701, 7.390e-3
0.700, 7.389e-3
0.699, 7.389e-3
0.698, 7.388e-3
0.697, 7.388e-3
0.696, 7.387e-3
0.695, 7.387e-3
0.694, 7.386e-3
0.693, 7.385e-3
0.692, 7.385e-3
0.691, 7.384e-3
0.690, 7.384e-3
0.689, 7.383e-3
0.688, 7.382e-3
0.687, 7.381e-3
0.686, 7.381e-3
0.685, 7.380e-3
0.684, 7.379e-3
0.683, 7.378e-3
0.682, 7.378e-3
0.681, 7.377e-3
0.680, 7.376e-3
0.679, 7.376e-3
0.678, 7.374e-3
0.677, 7.374e-3
0.676, 7.373e-3
0.675, 7.372e-3
0.674, 7.372e-3
0.673, 7.371e-3
0.672, 7.370e-3
0.671, 7.370e-3
0.670, 7.369e-3
0.669, 7.368e-3
0.668, 7.367e-3
0.667, 7.367e-3
0.666, 7.366e-3
0.665, 7.366e-3
0.664, 7.365e-3
0.663, 7.365e-3
0.662, 7.364e-3
0.661, 7.364e-3
0.660, 7.363e-3
0.659, 7.362e-3
0.658, 7.362e-3
0.657, 7.362e-3
0.656, 7.361e-3
0.655, 7.361e-3
0.654, 7.360e-3
0.653, 7.360e-3
0.652, 7.359e-3
0.651, 7.359e-3
0.650, 7.359e-3
0.649, 7.358e-3
0.648, 7.358e-3
0.647, 7.358e-3
0.646, 7.358e-3
0.645, 7.358e-3
0.644, 7.358e-3
0.643, 7.357e-3
0.642, 7.358e-3
0.641, 7.357e-3
0.640, 7.358e-3
0.639, 7.358e-3
0.638, 7.357e-3
0.637, 7.358e-3
0.636, 7.358e-3
0.635, 7.358e-3
0.634, 7.358e-3
0.633, 7.358e-3
0.632, 7.359e-3
0.631, 7.359e-3
0.630, 7.359e-3
0.629, 7.359e-3
0.628, 7.360e-3
0.627, 7.360e-3
0.626, 7.360e-3
0.625, 7.361e-3
0.624, 7.361e-3
0.623, 7.362e-3
0.622, 7.362e-3
0.621, 7.363e-3
0.620, 7.364e-3
0.619, 7.365e-3
0.618, 7.366e-3
0.617, 7.366e-3
0.616, 7.367e-3
0.615, 7.368e-3
0.614, 7.369e-3
0.613, 7.370e-3
0.612, 7.371e-3
0.611, 7.372e-3
0.610, 7.374e-3
0.609, 7.375e-3
0.608, 7.376e-3
0.607, 7.378e-3
0.606, 7.379e-3
0.605, 7.380e-3
0.604, 7.382e-3
0.603, 7.383e-3
0.602, 7.384e-3
0.601, 7.385e-3
0.600, 7.387e-3
0.599, 7.389e-3
0.598, 7.390e-3
0.597, 7.392e-3
0.596, 7.393e-3
0.595, 7.395e-3
0.594, 7.397e-3
0.593, 7.399e-3
0.592, 7.401e-3
0.591, 7.402e-3
0.590, 7.404e-3
0.589, 7.406e-3
0.588, 7.408e-3
0.587, 7.410e-3
0.586, 7.412e-3
0.585, 7.414e-3
0.584, 7.416e-3
0.583, 7.418e-3
0.582, 7.420e-3
0.581, 7.423e-3
0.580, 7.425e-3
0.579, 7.427e-3
0.578, 7.429e-3
0.577, 7.431e-3
0.576, 7.434e-3
0.575, 7.436e-3
0.574, 7.439e-3
0.573, 7.441e-3
0.572, 7.444e-3
0.571, 7.446e-3
0.570, 7.449e-3
0.569, 7.452e-3
0.568, 7.455e-3
0.567, 7.457e-3
0.566, 7.460e-3
0.565, 7.463e-3
0.564, 7.466e-3
0.563, 7.469e-3
0.562, 7.472e-3
0.561, 7.475e-3
0.560, 7.478e-3
0.559, 7.481e-3
0.558, 7.484e-3
0.557, 7.487e-3
0.556, 7.491e-3
0.555, 7.494e-3
0.554, 7.497e-3
0.553, 7.500e-3
0.552, 7.503e-3
0.551, 7.506e-3
0.550, 7.510e-3
0.549, 7.513e-3
0.548, 7.516e-3
0.547, 7.520e-3
0.546, 7.523e-3
0.545, 7.526e-3
0.544, 7.529e-3
0.543, 7.532e-3
0.542, 7.536e-3
0.541, 7.540e-3
0.540, 7.543e-3
0.539, 7.546e-3
0.538, 7.550e-3
0.537, 7.554e-3
0.536, 7.558e-3
0.535, 7.562e-3
0.534, 7.565e-3
0.533, 7.569e-3
0.532, 7.573e-3
0.531, 7.577e-3
0.530, 7.581e-3
0.529, 7.585e-3
0.528, 7.589e-3
0.527, 7.592e-3
0.526, 7.596e-3
0.525, 7.600e-3
0.524, 7.604e-3
0.523, 7.608e-3
0.522, 7.613e-3
0.521, 7.616e-3
0.520, 7.621e-3
0.519, 7.625e-3
0.518, 7.629e-3
0.517, 7.633e-3
0.516, 7.638e-3
0.515, 7.642e-3
0.514, 7.647e-3
0.513, 7.651e-3
0.512, 7.656e-3
0.511, 7.660e-3
0.510, 7.665e-3
0.509, 7.669e-3
0.508, 7.673e-3
0.507, 7.677e-3
0.506, 7.682e-3
0.505, 7.687e-3
0.504, 7.692e-3
0.503, 7.697e-3
0.502, 7.700e-3
0.501, 7.704e-3
0.500, 7.709e-3
0.499, 7.715e-3
0.498, 7.719e-3
0.497, 7.723e-3
0.496, 7.727e-3
0.495, 7.732e-3
0.494, 7.736e-3
0.493, 7.741e-3
0.492, 7.746e-3
0.491, 7.751e-3
0.490, 7.755e-3
0.489, 7.760e-3
0.488, 7.765e-3
0.487, 7.770e-3
0.486, 7.775e-3
0.485, 7.780e-3
0.484, 7.785e-3
0.483, 7.790e-3
0.482, 7.794e-3
0.481, 7.799e-3
0.480, 7.805e-3
0.479, 7.809e-3
0.478, 7.813e-3
0.477, 7.818e-3
0.476, 7.823e-3
0.475, 7.828e-3
0.474, 7.833e-3
0.473, 7.838e-3
0.472, 7.843e-3
0.471, 7.848e-3
0.470, 7.853e-3
0.469, 7.858e-3
0.468, 7.863e-3
0.467, 7.868e-3
0.466, 7.874e-3
0.465, 7.878e-3
0.464, 7.884e-3
0.463, 7.889e-3
0.462, 7.894e-3
0.461, 7.900e-3
0.460, 7.905e-3
0.459, 7.911e-3
0.458, 7.915e-3
0.457, 7.921e-3
0.456, 7.927e-3
0.455, 7.932e-3
0.454, 7.937e-3
0.453, 7.942e-3
0.452, 7.947e-3
0.451, 7.953e-3
0.450, 7.958e-3
0.449, 7.963e-3
0.448, 7.968e-3
0.447, 7.973e-3
0.446, 7.979e-3
0.445, 7.984e-3
0.444, 7.989e-3
0.443, 7.994e-3
0.442, 7.999e-3
0.441, 8.005e-3
0.440, 8.010e-3
0.439, 8.016e-3
0.438, 8.020e-3
0.437, 8.026e-3
0.436, 8.031e-3
0.435, 8.037e-3
0.434, 8.042e-3
0.433, 8.047e-3
0.432, 8.052e-3
0.431, 8.058e-3
0.430, 8.063e-3
0.429, 8.069e-3
0.428, 8.074e-3
0.427, 8.079e-3
0.426, 8.084e-3
0.425, 8.089e-3
0.424, 8.095e-3
0.423, 8.100e-3
0.422, 8.105e-3
0.421, 8.111e-3
0.420, 8.116e-3
0.419, 8.121e-3
0.418, 8.126e-3
0.417, 8.131e-3
0.416, 8.137e-3
0.415, 8.142e-3
0.414, 8.147e-3
0.413, 8.153e-3
0.412, 8.158e-3
0.411, 8.163e-3
0.410, 8.169e-3
0.409, 8.174e-3
0.408, 8.180e-3
0.407, 8.185e-3
0.406, 8.190e-3
0.405, 8.196e-3
0.404, 8.201e-3
0.403, 8.206e-3
0.402, 8.211e-3
0.401, 8.216e-3
0.400, 8.221e-3
0.399, 8.227e-3
0.398, 8.232e-3
0.397, 8.238e-3
0.396, 8.243e-3
0.395, 8.248e-3
0.394, 8.253e-3
0.393, 8.259e-3
0.392, 8.264e-3
0.391, 8.269e-3
0.390, 8.275e-3
0.389, 8.280e-3
0.388, 8.285e-3
0.387, 8.290e-3
0.386, 8.296e-3
0.385, 8.301e-3
0.384, 8.306e-3
0.383, 8.311e-3
0.382, 8.316e-3
0.381, 8.321e-3
0.380, 8.327e-3
0.379, 8.332e-3
0.378, 8.337e-3
0.377, 8.343e-3
0.376, 8.348e-3
0.375, 8.353e-3
0.374, 8.358e-3
0.373, 8.364e-3
0.372, 8.369e-3
0.371, 8.374e-3
0.370, 8.379e-3
0.369, 8.384e-3
0.368, 8.389e-3
0.367, 8.394e-3
0.366, 8.400e-3
0.365, 8.405e-3
0.364, 8.410e-3
0.363, 8.415e-3
0.362, 8.421e-3
0.361, 8.426e-3
0.360, 8.431e-3
0.359, 8.436e-3
0.358, 8.442e-3
0.357, 8.447e-3
0.356, 8.452e-3
0.355, 8.457e-3
0.354, 8.463e-3
0.353, 8.468e-3
0.352, 8.473e-3
0.351, 8.478e-3
0.350, 8.483e-3
0.349, 8.489e-3
0.348, 8.494e-3
0.347, 8.499e-3
0.346, 8.503e-3
0.345, 8.508e-3
0.344, 8.513e-3
0.343, 8.518e-3
0.342, 8.523e-3
0.341, 8.528e-3
0.340, 8.533e-3
0.339, 8.538e-3
0.338, 8.543e-3
0.337, 8.548e-3
0.336, 8.553e-3
0.335, 8.559e-3
0.334, 8.564e-3
0.333, 8.569e-3
0.332, 8.573e-3
0.331, 8.578e-3
0.330, 8.584e-3
0.329, 8.589e-3
0.328, 8.594e-3
0.327, 8.599e-3
0.326, 8.604e-3
0.325, 8.609e-3
0.324, 8.614e-3
0.323, 8.618e-3
0.322, 8.623e-3
0.321, 8.628e-3
0.320, 8.633e-3
0.319, 8.638e-3
0.318, 8.643e-3
0.317, 8.648e-3
0.316, 8.653e-3
0.315, 8.658e-3
0.314, 8.663e-3
0.313, 8.668e-3
0.312, 8.673e-3
0.311, 8.678e-3
0.310, 8.682e-3
0.309, 8.687e-3
0.308, 8.692e-3
0.307, 8.697e-3
0.306, 8.703e-3
0.305, 8.707e-3
0.304, 8.713e-3
0.303, 8.718e-3
0.302, 8.723e-3
0.301, 8.728e-3
0.300, 8.733e-3
0.299, 8.738e-3
0.298, 8.743e-3
0.297, 8.748e-3
0.296, 8.752e-3
0.295, 8.757e-3
0.294, 8.762e-3
0.293, 8.767e-3
0.292, 8.772e-3
0.291, 8.776e-3
0.290, 8.781e-3
0.289, 8.786e-3
0.288, 8.791e-3
0.287, 8.796e-3
0.286, 8.800e-3
0.285, 8.805e-3
0.284, 8.810e-3
0.283, 8.814e-3
0.282, 8.819e-3
0.281, 8.824e-3
0.280, 8.828e-3
0.279, 8.833e-3
0.278, 8.838e-3
0.277, 8.843e-3
0.276, 8.847e-3
0.275, 8.852e-3
0.274, 8.857e-3
0.273, 8.862e-3
0.272, 8.867e-3
0.271, 8.872e-3
0.270, 8.876e-3
0.269, 8.881e-3
0.268, 8.885e-3
0.267, 8.890e-3
0.266, 8.894e-3
0.265, 8.899e-3
0.264, 8.903e-3
0.263, 8.908e-3
0.262, 8.912e-3
0.261, 8.917e-3
0.260, 8.921e-3
0.259, 8.925e-3
0.258, 8.930e-3
0.257, 8.934e-3
0.256, 8.939e-3
0.255, 8.944e-3
0.254, 8.948e-3
0.253, 8.952e-3
0.252, 8.956e-3
0.251, 8.960e-3
0.250, 8.965e-3
0.249, 8.969e-3
0.248, 8.973e-3
0.247, 8.978e-3
0.246, 8.982e-3
0.245, 8.986e-3
0.244, 8.990e-3
0.243, 8.994e-3
0.242, 8.998e-3
0.241, 9.002e-3
0.240, 9.006e-3
0.239, 9.010e-3
0.238, 9.013e-3
0.237, 9.017e-3
0.236, 9.021e-3
0.235, 9.025e-3
0.234, 9.029e-3
0.233, 9.032e-3
0.232, 9.036e-3
0.231, 9.039e-3
0.230, 9.043e-3
0.229, 9.046e-3
0.228, 9.049e-3
0.227, 9.053e-3
0.226, 9.056e-3
0.225, 9.059e-3
0.224, 9.063e-3
0.223, 9.066e-3
0.222, 9.069e-3
0.221, 9.072e-3
0.220, 9.075e-3
0.219, 9.078e-3
0.218, 9.081e-3
0.217, 9.083e-3
0.216, 9.086e-3
0.215, 9.088e-3
0.214, 9.091e-3
0.213, 9.093e-3
0.212, 9.096e-3
0.211, 9.098e-3
0.210, 9.100e-3
0.209, 9.102e-3
0.208, 9.105e-3
0.207, 9.107e-3
0.206, 9.109e-3
0.205, 9.111e-3
0.204, 9.113e-3
0.203, 9.115e-3
0.202, 9.118e-3
0.201, 9.119e-3
0.200, 9.121e-3
0.199, 9.123e-3
0.198, 9.124e-3
0.197, 9.126e-3
0.196, 9.128e-3
0.195, 9.129e-3
0.194, 9.130e-3
0.193, 9.132e-3
0.192, 9.133e-3
0.191, 9.134e-3
0.190, 9.135e-3
0.189, 9.136e-3
0.188, 9.137e-3
0.187, 9.138e-3
0.186, 9.139e-3
0.185, 9.140e-3
0.184, 9.141e-3
0.183, 9.142e-3
0.182, 9.142e-3
0.181, 9.143e-3
0.180, 9.143e-3
0.179, 9.143e-3
0.178, 9.144e-3
0.177, 9.144e-3
0.176, 9.144e-3
0.175, 9.145e-3
0.174, 9.144e-3
0.173, 9.144e-3
0.172, 9.144e-3
0.171, 9.144e-3
0.170, 9.144e-3
0.169, 9.143e-3
0.168, 9.143e-3
0.167, 9.143e-3
0.166, 9.143e-3
0.165, 9.142e-3
0.164, 9.142e-3
0.163, 9.141e-3
0.162, 9.140e-3
0.161, 9.140e-3
0.160, 9.139e-3
0.159, 9.139e-3
0.158, 9.138e-3
0.157, 9.136e-3
0.156, 9.135e-3
0.155, 9.134e-3
0.154, 9.133e-3
0.153, 9.132e-3
0.152, 9.130e-3
0.151, 9.129e-3
0.150, 9.127e-3
0.149, 9.126e-3
0.148, 9.124e-3
0.147, 9.123e-3
0.146, 9.121e-3
0.145, 9.120e-3
0.144, 9.118e-3
0.143, 9.117e-3
0.142, 9.115e-3
0.141, 9.113e-3
0.140, 9.111e-3
0.139, 9.109e-3
0.138, 9.107e-3
0.137, 9.105e-3
0.136, 9.103e-3
0.135, 9.101e-3
0.134, 9.100e-3
0.133, 9.098e-3
0.132, 9.095e-3
0.131, 9.093e-3
0.130, 9.092e-3
0.129, 9.089e-3
0.128, 9.087e-3
0.127, 9.085e-3
0.126, 9.082e-3
0.125, 9.080e-3
0.124, 9.078e-3
0.123, 9.075e-3
0.122, 9.073e-3
0.121, 9.071e-3
0.120, 9.068e-3
0.119, 9.065e-3
0.118, 9.063e-3
0.117, 9.060e-3
0.116, 9.058e-3
0.115, 9.055e-3
0.114, 9.052e-3
0.113, 9.050e-3
0.112, 9.048e-3
0.111, 9.045e-3
0.110, 9.042e-3
0.109, 9.040e-3
0.108, 9.037e-3
0.107, 9.035e-3
0.106, 9.033e-3
0.105, 9.030e-3
0.104, 9.027e-3
0.103, 9.024e-3
0.102, 9.023e-3
0.101, 9.020e-3
0.100, 9.018e-3
0.099, 9.015e-3
0.098, 9.012e-3
0.097, 9.010e-3
0.096, 9.007e-3
0.095, 9.005e-3
0.094, 9.003e-3
0.093, 9.000e-3
0.092, 8.998e-3
0.091, 8.995e-3
0.090, 8.993e-3
0.089, 8.990e-3
0.088, 8.988e-3
0.087, 8.986e-3
0.086, 8.983e-3
0.085, 8.981e-3
0.084, 8.979e-3
0.083, 8.977e-3
0.082, 8.975e-3
0.081, 8.972e-3
0.080, 8.971e-3
0.079, 8.969e-3
0.078, 8.967e-3
0.077, 8.965e-3
0.076, 8.963e-3
0.075, 8.961e-3
0.074, 8.959e-3
0.073, 8.958e-3
0.072, 8.956e-3
0.071, 8.954e-3
0.070, 8.953e-3
0.069, 8.952e-3
0.068, 8.950e-3
0.067, 8.949e-3
0.066, 8.947e-3
0.065, 8.945e-3
0.064, 8.944e-3
0.063, 8.942e-3
0.062, 8.940e-3
0.061, 8.939e-3
0.060, 8.937e-3
0.059, 8.936e-3
0.058, 8.935e-3
0.057, 8.934e-3
0.056, 8.933e-3
0.055, 8.932e-3
0.054, 8.930e-3
0.053, 8.930e-3
0.052, 8.929e-3
0.051, 8.928e-3
0.050, 8.928e-3
0.049, 8.927e-3
0.048, 8.926e-3
0.047, 8.926e-3
0.046, 8.925e-3
0.045, 8.925e-3
0.044, 8.925e-3
0.043, 8.925e-3
0.042, 8.924e-3
0.041, 8.924e-3
0.040, 8.924e-3
0.039, 8.924e-3
0.038, 8.924e-3
0.037, 8.924e-3
0.036, 8.924e-3
0.035, 8.925e-3
0.034, 8.925e-3
0.033, 8.926e-3
0.032, 8.926e-3
0.031, 8.927e-3
0.030, 8.927e-3
0.029, 8.928e-3
0.028, 8.929e-3
0.027, 8.930e-3
0.026, 8.931e-3
0.025, 8.933e-3
0.024, 8.934e-3
0.023, 8.935e-3
0.022, 8.937e-3
0.021, 8.938e-3
0.020, 8.940e-3
0.019, 8.942e-3
0.018, 8.944e-3
0.017, 8.946e-3
0.016, 8.948e-3
0.015, 8.949e-3
0.014, 8.951e-3
0.013, 8.953e-3
0.012, 8.956e-3
0.011, 8.958e-3
0.010, 8.960e-3
0.009, 8.962e-3
0.008, 8.965e-3
0.007, 8.968e-3
0.006, 8.970e-3
0.005, 8.973e-3
0.004, 8.976e-3
0.003, 8.978e-3
0.002, 8.981e-3
0.001, 8.984e-3
0.000, 8.988e-3
-0.001, 8.992e-3
-0.002, 8.995e-3
-0.003, 8.999e-3
-0.004, 9.002e-3
-0.005, 9.005e-3
-0.006, 9.009e-3
-0.007, 9.013e-3
-0.008, 9.017e-3
-0.009, 9.021e-3
-0.010, 9.025e-3
-0.011, 9.029e-3
-0.012, 9.034e-3
-0.013, 9.038e-3
-0.014, 9.042e-3
-0.015, 9.047e-3
-0.016, 9.052e-3
-0.017, 9.057e-3
-0.018, 9.061e-3
-0.019, 9.066e-3
-0.020, 9.071e-3
-0.021, 9.076e-3
-0.022, 9.082e-3
-0.023, 9.087e-3
-0.024, 9.092e-3
-0.025, 9.097e-3
-0.026, 9.102e-3
-0.027, 9.108e-3
-0.028, 9.113e-3
-0.029, 9.119e-3
-0.030, 9.125e-3
-0.031, 9.131e-3
-0.032, 9.138e-3
-0.033, 9.144e-3
-0.034, 9.151e-3
-0.035, 9.157e-3
-0.036, 9.163e-3
-0.037, 9.169e-3
-0.038, 9.176e-3
-0.039, 9.183e-3
-0.040, 9.190e-3
-0.041, 9.197e-3
-0.042, 9.204e-3
-0.043, 9.212e-3
-0.044, 9.220e-3
-0.045, 9.228e-3
-0.046, 9.236e-3
-0.047, 9.244e-3
-0.048, 9.252e-3
-0.049, 9.260e-3
-0.050, 9.269e-3
-0.051, 9.277e-3
-0.052, 9.286e-3
-0.053, 9.295e-3
-0.054, 9.303e-3
-0.055, 9.312e-3
-0.056, 9.321e-3
-0.057, 9.331e-3
-0.058, 9.340e-3
-0.059, 9.350e-3
-0.060, 9.359e-3
-0.061, 9.369e-3
-0.062, 9.379e-3
-0.063, 9.388e-3
-0.064, 9.398e-3
-0.065, 9.409e-3
-0.066, 9.419e-3
-0.067, 9.429e-3
-0.068, 9.439e-3
-0.069, 9.450e-3
-0.070, 9.461e-3
-0.071, 9.472e-3
-0.072, 9.483e-3
-0.073, 9.494e-3
-0.074, 9.505e-3
-0.075, 9.517e-3
-0.076, 9.529e-3
-0.077, 9.540e-3
-0.078, 9.552e-3
-0.079, 9.563e-3
-0.080, 9.575e-3
-0.081, 9.587e-3
-0.082, 9.599e-3
-0.083, 9.611e-3
-0.084, 9.623e-3
-0.085, 9.635e-3
-0.086, 9.648e-3
-0.087, 9.660e-3
-0.088, 9.673e-3
-0.089, 9.685e-3
-0.090, 9.697e-3
-0.091, 9.710e-3
-0.092, 9.723e-3
-0.093, 9.736e-3
-0.094, 9.749e-3
-0.095, 9.762e-3
-0.096, 9.775e-3
-0.097, 9.788e-3
-0.098, 9.801e-3
-0.099, 9.815e-3
-0.100, 9.807e-3
-0.099, 9.706e-3
-0.098, 9.585e-3
-0.097, 9.466e-3
-0.096, 9.350e-3
-0.095, 9.236e-3
-0.094, 9.125e-3
-0.093, 9.016e-3
-0.092, 8.908e-3
-0.091, 8.801e-3
-0.090, 8.695e-3
-0.089, 8.591e-3
-0.088, 8.489e-3
-0.087, 8.388e-3
-0.086, 8.288e-3
-0.085, 8.189e-3
-0.084, 8.092e-3
-0.083, 7.995e-3
-0.082, 7.898e-3
-0.081, 7.804e-3
-0.080, 7.711e-3
-0.079, 7.618e-3
-0.078, 7.527e-3
-0.077, 7.436e-3
-0.076, 7.346e-3
-0.075, 7.257e-3
-0.074, 7.169e-3
-0.073, 7.081e-3
-0.072, 6.994e-3
-0.071, 6.908e-3
-0.070, 6.823e-3
-0.069, 6.738e-3
-0.068, 6.655e-3
-0.067, 6.572e-3
-0.066, 6.490e-3
-0.065, 6.408e-3
-0.064, 6.326e-3
-0.063, 6.245e-3
-0.062, 6.166e-3
-0.061, 6.087e-3
-0.060, 6.008e-3
-0.059, 5.932e-3
-0.058, 5.855e-3
-0.057, 5.778e-3
-0.056, 5.702e-3
-0.055, 5.627e-3
-0.054, 5.551e-3
-0.053, 5.476e-3
-0.052, 5.402e-3
-0.051, 5.329e-3
-0.050, 5.256e-3
-0.049, 5.183e-3
-0.048, 5.112e-3
-0.047, 5.040e-3
-0.046, 4.969e-3
-0.045, 4.899e-3
-0.044, 4.828e-3
-0.043, 4.758e-3
-0.042, 4.689e-3
-0.041, 4.620e-3
-0.040, 4.552e-3
-0.039, 4.485e-3
-0.038, 4.417e-3
-0.037, 4.351e-3
-0.036, 4.284e-3
-0.035, 4.218e-3
-0.034, 4.153e-3
-0.033, 4.087e-3
-0.032, 4.022e-3
-0.031, 3.956e-3
-0.030, 3.892e-3
-0.029, 3.828e-3
-0.028, 3.765e-3
-0.027, 3.702e-3
-0.026, 3.639e-3
-0.025, 3.576e-3
-0.024, 3.514e-3
-0.023, 3.452e-3
-0.022, 3.391e-3
-0.021, 3.331e-3
-0.020, 3.270e-3
-0.019, 3.209e-3
-0.018, 3.148e-3
-0.017, 3.089e-3
-0.016, 3.030e-3
-0.015, 2.971e-3
-0.014, 2.912e-3
-0.013, 2.854e-3
-0.012, 2.797e-3
-0.011, 2.740e-3
-0.010, 2.682e-3
-0.009, 2.626e-3
-0.008, 2.569e-3
-0.007, 2.512e-3
-0.006, 2.456e-3
-0.005, 2.399e-3
-0.004, 2.344e-3
-0.003, 2.289e-3
-0.002, 2.234e-3
-0.001, 2.180e-3
-0.000, 2.125e-3
0.001, 2.070e-3
0.002, 2.016e-3
0.003, 1.963e-3
0.004, 1.910e-3
0.005, 1.857e-3
0.006, 1.805e-3
0.007, 1.753e-3
0.008, 1.701e-3
0.009, 1.648e-3
0.010, 1.597e-3
0.011, 1.545e-3
0.012, 1.495e-3
0.013, 1.445e-3
0.014, 1.394e-3
0.015, 1.344e-3
0.016, 1.295e-3
0.017, 1.246e-3
0.018, 1.197e-3
0.019, 1.148e-3
0.020, 1.099e-3
0.021, 1.051e-3
0.022, 1.003e-3
0.023, 9.551e-4
0.024, 9.074e-4
0.025, 8.589e-4
0.026, 8.116e-4
0.027, 7.645e-4
0.028, 7.178e-4
0.029, 6.719e-4
0.030, 6.258e-4
0.031, 5.801e-4
0.032, 5.343e-4
0.033, 4.884e-4
0.034, 4.436e-4
0.035, 3.986e-4
0.036, 3.540e-4
0.037, 3.098e-4
0.038, 2.657e-4
0.039, 2.219e-4
0.040, 1.783e-4
0.041, 1.349e-4
0.042, 9.110e-5
0.043, 4.731e-5
0.044, 4.630e-6
0.045, -3.804e-5
0.046, -8.041e-5
0.047, -1.222e-4
0.048, -1.640e-4
0.049, -2.055e-4
0.050, -2.469e-4
0.051, -2.886e-4
0.052, -3.286e-4
0.053, -3.689e-4
0.054, -4.096e-4
0.055, -4.499e-4
0.056, -4.899e-4
0.057, -5.295e-4
0.058, -5.693e-4
0.059, -6.089e-4
0.060, -6.479e-4
0.061, -6.871e-4
0.062, -7.268e-4
0.063, -7.653e-4
0.064, -8.037e-4
0.065, -8.418e-4
0.066, -8.795e-4
0.067, -9.169e-4
0.068, -9.546e-4
0.069, -9.917e-4
0.070, -1.029e-3
0.071, -1.066e-3
0.072, -1.103e-3
0.073, -1.139e-3
0.074, -1.175e-3
0.075, -1.212e-3
0.076, -1.247e-3
0.077, -1.283e-3
0.078, -1.318e-3
0.079, -1.354e-3
0.080, -1.389e-3
0.081, -1.423e-3
0.082, -1.458e-3
0.083, -1.494e-3
0.084, -1.528e-3
0.085, -1.562e-3
0.086, -1.596e-3
0.087, -1.630e-3
0.088, -1.663e-3
0.089, -1.696e-3
0.090, -1.729e-3
0.091, -1.762e-3
0.092, -1.795e-3
0.093, -1.828e-3
0.094, -1.860e-3
0.095, -1.891e-3
0.096, -1.923e-3
0.097, -1.955e-3
0.098, -1.987e-3
0.099, -2.018e-3
0.100, -2.049e-3
0.101, -2.080e-3
0.102, -2.111e-3
0.103, -2.143e-3
0.104, -2.173e-3
0.105, -2.203e-3
0.106, -2.234e-3
0.107, -2.264e-3
0.108, -2.295e-3
0.109, -2.324e-3
0.110, -2.354e-3
0.111, -2.383e-3
0.112, -2.412e-3
0.113, -2.441e-3
0.114, -2.469e-3
0.115, -2.498e-3
0.116, -2.526e-3
0.117, -2.554e-3
0.118, -2.583e-3
0.119, -2.611e-3
0.120, -2.638e-3
0.121, -2.666e-3
0.122, -2.693e-3
0.123, -2.721e-3
0.124, -2.748e-3
0.125, -2.774e-3
0.126, -2.801e-3
0.127, -2.828e-3
0.128, -2.854e-3
0.129, -2.880e-3
0.130, -2.906e-3
0.131, -2.932e-3
0.132, -2.958e-3
0.133, -2.983e-3
0.134, -3.009e-3
0.135, -3.035e-3
0.136, -3.061e-3
0.137, -3.086e-3
0.138, -3.110e-3
0.139, -3.135e-3
0.140, -3.160e-3
0.141, -3.184e-3
0.142, -3.209e-3
0.143, -3.233e-3
0.144, -3.257e-3
0.145, -3.280e-3
0.146, -3.304e-3
0.147, -3.327e-3
0.148, -3.351e-3
0.149, -3.374e-3
0.150, -3.398e-3
0.151, -3.420e-3
0.152, -3.443e-3
0.153, -3.464e-3
0.154, -3.487e-3
0.155, -3.510e-3
0.156, -3.532e-3
0.157, -3.555e-3
0.158, -3.577e-3
0.159, -3.598e-3
0.160, -3.620e-3
0.161, -3.642e-3
0.162, -3.663e-3
0.163, -3.685e-3
0.164, -3.706e-3
0.165, -3.727e-3
0.166, -3.748e-3
0.167, -3.769e-3
0.168, -3.789e-3
0.169, -3.810e-3
0.170, -3.831e-3
0.171, -3.852e-3
0.172, -3.872e-3
0.173, -3.893e-3
0.174, -3.913e-3
0.175, -3.933e-3
0.176, -3.952e-3
0.177, -3.972e-3
0.178, -3.992e-3
0.179, -4.012e-3
0.180, -4.031e-3
0.181, -4.050e-3
0.182, -4.069e-3
0.183, -4.088e-3
0.184, -4.107e-3
0.185, -4.126e-3
0.186, -4.145e-3
0.187, -4.164e-3
0.188, -4.182e-3
0.189, -4.201e-3
0.190, -4.219e-3
0.191, -4.237e-3
0.192, -4.255e-3
0.193, -4.273e-3
0.194, -4.291e-3
0.195, -4.309e-3
0.196, -4.327e-3
0.197, -4.344e-3
0.198, -4.362e-3
0.199, -4.380e-3
0.200, -4.397e-3
0.201, -4.414e-3
0.202, -4.431e-3
0.203, -4.448e-3
0.204, -4.465e-3
0.205, -4.483e-3
0.206, -4.500e-3
0.207, -4.517e-3
0.208, -4.533e-3
0.209, -4.550e-3
0.210, -4.566e-3
0.211, -4.583e-3
0.212, -4.600e-3
0.213, -4.616e-3
0.214, -4.634e-3
0.215, -4.650e-3
0.216, -4.666e-3
0.217, -4.682e-3
0.218, -4.698e-3
0.219, -4.714e-3
0.220, -4.730e-3
0.221, -4.746e-3
0.222, -4.761e-3
0.223, -4.777e-3
0.224, -4.793e-3
0.225, -4.809e-3
0.226, -4.824e-3
0.227, -4.839e-3
0.228, -4.855e-3
0.229, -4.870e-3
0.230, -4.885e-3
0.231, -4.901e-3
0.232, -4.916e-3
0.233, -4.931e-3
0.234, -4.946e-3
0.235, -4.961e-3
0.236, -4.976e-3
0.237, -4.991e-3
0.238, -5.006e-3
0.239, -5.020e-3
0.240, -5.034e-3
0.241, -5.049e-3
0.242, -5.063e-3
0.243, -5.078e-3
0.244, -5.092e-3
0.245, -5.107e-3
0.246, -5.121e-3
0.247, -5.135e-3
0.248, -5.150e-3
0.249, -5.164e-3
0.250, -5.179e-3
0.251, -5.193e-3
0.252, -5.207e-3
0.253, -5.221e-3
0.254, -5.235e-3
0.255, -5.249e-3
0.256, -5.263e-3
0.257, -5.277e-3
0.258, -5.291e-3
0.259, -5.305e-3
0.260, -5.319e-3
0.261, -5.332e-3
0.262, -5.347e-3
0.263, -5.361e-3
0.264, -5.374e-3
0.265, -5.388e-3
0.266, -5.402e-3
0.267, -5.416e-3
0.268, -5.430e-3
0.269, -5.444e-3
0.270, -5.457e-3
0.271, -5.471e-3
0.272, -5.484e-3
0.273, -5.498e-3
0.274, -5.511e-3
0.275, -5.525e-3
0.276, -5.538e-3
0.277, -5.552e-3
0.278, -5.565e-3
0.279, -5.578e-3
0.280, -5.591e-3
0.281, -5.604e-3
0.282, -5.618e-3
0.283, -5.631e-3
0.284, -5.644e-3
0.285, -5.657e-3
0.286, -5.671e-3
0.287, -5.684e-3
0.288, -5.697e-3
0.289, -5.711e-3
0.290, -5.724e-3
0.291, -5.737e-3
0.292, -5.750e-3
0.293, -5.763e-3
0.294, -5.777e-3
0.295, -5.790e-3
0.296, -5.803e-3
0.297, -5.816e-3
0.298, -5.829e-3
0.299, -5.842e-3
0.300, -5.855e-3
0.301, -5.868e-3
0.302, -5.881e-3
0.303, -5.894e-3
0.304, -5.907e-3
0.305, -5.920e-3
0.306, -5.933e-3
0.307, -5.947e-3
0.308, -5.960e-3
0.309, -5.973e-3
0.310, -5.986e-3
0.311, -5.999e-3
0.312, -6.012e-3
0.313, -6.025e-3
0.314, -6.038e-3
0.315, -6.051e-3
0.316, -6.064e-3
0.317, -6.077e-3
0.318, -6.091e-3
0.319, -6.103e-3
0.320, -6.116e-3
0.321, -6.129e-3
0.322, -6.142e-3
0.323, -6.156e-3
0.324, -6.169e-3
0.325, -6.182e-3
0.326, -6.196e-3
0.327, -6.209e-3
0.328, -6.222e-3
0.329, -6.235e-3
0.330, -6.248e-3
0.331, -6.261e-3
0.332, -6.274e-3
0.333, -6.288e-3
0.334, -6.301e-3
0.335, -6.314e-3
0.336, -6.327e-3
0.337, -6.340e-3
0.338, -6.353e-3
0.339, -6.366e-3
0.340, -6.380e-3
0.341, -6.393e-3
0.342, -6.406e-3
0.343, -6.419e-3
0.344, -6.432e-3
0.345, -6.446e-3
0.346, -6.459e-3
0.347, -6.472e-3
0.348, -6.485e-3
0.349, -6.498e-3
0.350, -6.512e-3
0.351, -6.525e-3
0.352, -6.538e-3
0.353, -6.552e-3
0.354, -6.565e-3
0.355, -6.579e-3
0.356, -6.592e-3
0.357, -6.604e-3
0.358, -6.618e-3
0.359, -6.632e-3
0.360, -6.645e-3
0.361, -6.658e-3
0.362, -6.672e-3
0.363, -6.685e-3
0.364, -6.699e-3
0.365, -6.712e-3
0.366, -6.726e-3
0.367, -6.739e-3
0.368, -6.753e-3
0.369, -6.766e-3
0.370, -6.780e-3
0.371, -6.793e-3
0.372, -6.806e-3
0.373, -6.820e-3
0.374, -6.834e-3
0.375, -6.848e-3
0.376, -6.861e-3
0.377, -6.875e-3
0.378, -6.889e-3
0.379, -6.902e-3
0.380, -6.916e-3
0.381, -6.930e-3
0.382, -6.944e-3
0.383, -6.957e-3
0.384, -6.972e-3
0.385, -6.986e-3
0.386, -7.000e-3
0.387, -7.013e-3
0.388, -7.027e-3
0.389, -7.041e-3
0.390, -7.055e-3
0.391, -7.069e-3
0.392, -7.083e-3
0.393, -7.098e-3
0.394, -7.111e-3
0.395, -7.125e-3
0.396, -7.139e-3
0.397, -7.153e-3
0.398, -7.167e-3
0.399, -7.180e-3
0.400, -7.194e-3
0.401, -7.208e-3
0.402, -7.222e-3
0.403, -7.236e-3
0.404, -7.250e-3
0.405, -7.263e-3
0.406, -7.277e-3
0.407, -7.291e-3
0.408, -7.305e-3
0.409, -7.319e-3
0.410, -7.333e-3
0.411, -7.347e-3
0.412, -7.361e-3
0.413, -7.375e-3
0.414, -7.389e-3
0.415, -7.403e-3
0.416, -7.417e-3
0.417, -7.431e-3
0.418, -7.444e-3
0.419, -7.459e-3
0.420, -7.472e-3
0.421, -7.486e-3
0.422, -7.500e-3
0.423, -7.514e-3
0.424, -7.527e-3
0.425, -7.542e-3
0.426, -7.555e-3
0.427, -7.568e-3
0.428, -7.582e-3
0.429, -7.596e-3
0.430, -7.610e-3
0.431, -7.624e-3
0.432, -7.637e-3
0.433, -7.651e-3
0.434, -7.665e-3
0.435, -7.679e-3
0.436, -7.693e-3
0.437, -7.707e-3
0.438, -7.720e-3
0.439, -7.734e-3
0.440, -7.747e-3
0.441, -7.762e-3
0.442, -7.776e-3
0.443, -7.789e-3
0.444, -7.803e-3
0.445, -7.816e-3
0.446, -7.830e-3
0.447, -7.843e-3
0.448, -7.856e-3
0.449, -7.870e-3
0.450, -7.883e-3
0.451, -7.897e-3
0.452, -7.910e-3
0.453, -7.923e-3
0.454, -7.936e-3
0.455, -7.949e-3
0.456, -7.962e-3
0.457, -7.976e-3
0.458, -7.989e-3
0.459, -8.002e-3
0.460, -8.015e-3
0.461, -8.028e-3
0.462, -8.041e-3
0.463, -8.054e-3
0.464, -8.067e-3
0.465, -8.080e-3
0.466, -8.093e-3
0.467, -8.106e-3
0.468, -8.119e-3
0.469, -8.132e-3
0.470, -8.145e-3
0.471, -8.157e-3
0.472, -8.169e-3
0.473, -8.182e-3
0.474, -8.194e-3
0.475, -8.207e-3
0.476, -8.219e-3
0.477, -8.231e-3
0.478, -8.244e-3
0.479, -8.256e-3
0.480, -8.268e-3
0.481, -8.281e-3
0.482, -8.293e-3
0.483, -8.305e-3
0.484, -8.318e-3
0.485, -8.330e-3
0.486, -8.342e-3
0.487, -8.354e-3
0.488, -8.366e-3
0.489, -8.378e-3
0.490, -8.390e-3
0.491, -8.402e-3
0.492, -8.413e-3
0.493, -8.425e-3
0.494, -8.437e-3
0.495, -8.449e-3
0.496, -8.461e-3
0.497, -8.473e-3
0.498, -8.484e-3
0.499, -8.496e-3
0.500, -8.507e-3
0.501, -8.519e-3
0.502, -8.530e-3
0.503, -8.542e-3
0.504, -8.554e-3
0.505, -8.565e-3
0.506, -8.577e-3
0.507, -8.588e-3
0.508, -8.599e-3
0.509, -8.611e-3
0.510, -8.622e-3
0.511, -8.633e-3
0.512, -8.644e-3
0.513, -8.656e-3
0.514, -8.667e-3
0.515, -8.677e-3
0.516, -8.688e-3
0.517, -8.699e-3
0.518, -8.710e-3
0.519, -8.721e-3
0.520, -8.731e-3
0.521, -8.742e-3
0.522, -8.752e-3
0.523, -8.762e-3
0.524, -8.773e-3
0.525, -8.783e-3
0.526, -8.793e-3
0.527, -8.804e-3
0.528, -8.813e-3
0.529, -8.824e-3
0.530, -8.834e-3
0.531, -8.844e-3
0.532, -8.854e-3
0.533, -8.864e-3
0.534, -8.874e-3
0.535, -8.884e-3
0.536, -8.894e-3
0.537, -8.904e-3
0.538, -8.914e-3
0.539, -8.924e-3
0.540, -8.934e-3
0.541, -8.943e-3
0.542, -8.952e-3
0.543, -8.962e-3
0.544, -8.972e-3
0.545, -8.982e-3
0.546, -8.991e-3
0.547, -9.001e-3
0.548, -9.010e-3
0.549, -9.019e-3
0.550, -9.029e-3
0.551, -9.038e-3
0.552, -9.047e-3
0.553, -9.056e-3
0.554, -9.065e-3
0.555, -9.074e-3
0.556, -9.083e-3
0.557, -9.092e-3
0.558, -9.101e-3
0.559, -9.110e-3
0.560, -9.119e-3
0.561, -9.127e-3
0.562, -9.135e-3
0.563, -9.145e-3
0.564, -9.153e-3
0.565, -9.162e-3
0.566, -9.171e-3
0.567, -9.179e-3
0.568, -9.187e-3
0.569, -9.196e-3
0.570, -9.204e-3
0.571, -9.212e-3
0.572, -9.221e-3
0.573, -9.229e-3
0.574, -9.237e-3
0.575, -9.245e-3
0.576, -9.253e-3
0.577, -9.261e-3
0.578, -9.269e-3
0.579, -9.277e-3
0.580, -9.285e-3
0.581, -9.293e-3
0.582, -9.301e-3
0.583, -9.309e-3
0.584, -9.317e-3
0.585, -9.325e-3
0.586, -9.332e-3
0.587, -9.340e-3
0.588, -9.348e-3
0.589, -9.355e-3
0.590, -9.363e-3
0.591, -9.370e-3
0.592, -9.378e-3
0.593, -9.385e-3
0.594, -9.392e-3
0.595, -9.400e-3
0.596, -9.407e-3
0.597, -9.414e-3
0.598, -9.422e-3
0.599, -9.428e-3
0.600, -9.435e-3
0.601, -9.442e-3
0.602, -9.449e-3
0.603, -9.456e-3
0.604, -9.463e-3
0.605, -9.470e-3
0.606, -9.477e-3
0.607, -9.483e-3
0.608, -9.490e-3
0.609, -9.497e-3
0.610, -9.503e-3
0.611, -9.510e-3
0.612, -9.517e-3
0.613, -9.523e-3
0.614, -9.529e-3
0.615, -9.536e-3
0.616, -9.542e-3
0.617, -9.548e-3
0.618, -9.554e-3
0.619, -9.561e-3
0.620, -9.567e-3
0.621, -9.573e-3
0.622, -9.579e-3
0.623, -9.585e-3
0.624, -9.591e-3
0.625, -9.596e-3
0.626, -9.602e-3
0.627, -9.608e-3
0.628, -9.614e-3
0.629, -9.619e-3
0.630, -9.625e-3
0.631, -9.631e-3
0.632, -9.636e-3
0.633, -9.642e-3
0.634, -9.647e-3
0.635, -9.652e-3
0.636, -9.657e-3
0.637, -9.662e-3
0.638, -9.667e-3
0.639, -9.672e-3
0.640, -9.678e-3
0.641, -9.683e-3
0.642, -9.688e-3
0.643, -9.693e-3
0.644, -9.698e-3
0.645, -9.703e-3
0.646, -9.708e-3
0.647, -9.713e-3
0.648, -9.718e-3
0.649, -9.722e-3
0.650, -9.726e-3
0.651, -9.730e-3
0.652, -9.735e-3
0.653, -9.739e-3
0.654, -9.744e-3
0.655, -9.748e-3
0.656, -9.753e-3
0.657, -9.758e-3
0.658, -9.762e-3
0.659, -9.767e-3
0.660, -9.771e-3
0.661, -9.776e-3
0.662, -9.780e-3
0.663, -9.784e-3
0.664, -9.789e-3
0.665, -9.793e-3
0.666, -9.797e-3
0.667, -9.801e-3
0.668, -9.805e-3
0.669, -9.809e-3
0.670, -9.813e-3
0.671, -9.817e-3
0.672, -9.821e-3
0.673, -9.825e-3
0.674, -9.829e-3
0.675, -9.832e-3
0.676, -9.836e-3
0.677, -9.840e-3
0.678, -9.843e-3
0.679, -9.847e-3
0.680, -9.850e-3
0.681, -9.854e-3
0.682, -9.857e-3
0.683, -9.861e-3
0.684, -9.864e-3
0.685, -9.868e-3
0.686, -9.871e-3
0.687, -9.874e-3
0.688, -9.878e-3
0.689, -9.881e-3
0.690, -9.884e-3
0.691, -9.887e-3
0.692, -9.891e-3
0.693, -9.893e-3
0.694, -9.896e-3
0.695, -9.899e-3
0.696, -9.902e-3
0.697, -9.905e-3
0.698, -9.908e-3
0.699, -9.911e-3
0.700, -9.914e-3
0.701, -9.917e-3
0.702, -9.919e-3
0.703, -9.922e-3
0.704, -9.925e-3
0.705, -9.927e-3
0.706, -9.930e-3
0.707, -9.932e-3
0.708, -9.935e-3
0.709, -9.937e-3
0.710, -9.939e-3
0.711, -9.942e-3
0.712, -9.944e-3
0.713, -9.946e-3
0.714, -9.948e-3
0.715, -9.950e-3
0.716, -9.953e-3
0.717, -9.956e-3
0.718, -9.959e-3
0.719, -9.960e-3
0.720, -9.962e-3
0.721, -9.964e-3
0.722, -9.965e-3
0.723, -9.967e-3
0.724, -9.969e-3
0.725, -9.971e-3
0.726, -9.973e-3
0.727, -9.974e-3
0.728, -9.976e-3
0.729, -9.978e-3
0.730, -9.979e-3
0.731, -9.980e-3
0.732, -9.982e-3
0.733, -9.983e-3
0.734, -9.985e-3
0.735, -9.986e-3
0.736, -9.988e-3
0.737, -9.989e-3
0.738, -9.991e-3
0.739, -9.992e-3
0.740, -9.993e-3
0.741, -9.994e-3
0.742, -9.996e-3
0.743, -9.997e-3
0.744, -9.998e-3
0.745, -9.999e-3
0.746, -1.000e-2
0.747, -1.000e-2
0.748, -1.000e-2
0.749, -1.000e-2
0.750, -1.000e-2
0.751, -1.001e-2
0.752, -1.001e-2
0.753, -1.001e-2
0.754, -1.001e-2
0.755, -1.001e-2
0.756, -1.001e-2
0.757, -1.001e-2
0.758, -1.001e-2
0.759, -1.001e-2
0.760, -1.001e-2
0.761, -1.001e-2
0.762, -1.001e-2
0.763, -1.001e-2
0.764, -1.001e-2
0.765, -1.001e-2
0.766, -1.001e-2
0.767, -1.001e-2
0.768, -1.002e-2
0.769, -1.002e-2
0.770, -1.002e-2
0.771, -1.002e-2
0.772, -1.002e-2
0.773, -1.002e-2
0.774, -1.002e-2
0.775, -1.002e-2
0.776, -1.002e-2
0.777, -1.002e-2
0.778, -1.002e-2
0.779, -1.002e-2
0.780, -1.002e-2
0.781, -1.002e-2
0.782, -1.002e-2
0.783, -1.002e-2
0.784, -1.002e-2
0.785, -1.002e-2
0.786, -1.002e-2
0.787, -1.002e-2
0.788, -1.002e-2
0.789, -1.002e-2
0.790, -1.002e-2
0.791, -1.002e-2
0.792, -1.001e-2
0.793, -1.001e-2
0.794, -1.001e-2
0.795, -1.001e-2
0.796, -1.001e-2
0.797, -1.001e-2
0.798, -1.001e-2
0.799, -1.001e-2
0.800, -1.001e-2
0.801, -1.001e-2
0.802, -1.001e-2
0.803, -1.001e-2
0.804, -1.001e-2
0.805, -1.001e-2
0.806, -1.001e-2
0.807, -1.001e-2
0.808, -1.001e-2
0.809, -1.000e-2
0.810, -1.000e-2
0.811, -1.000e-2
0.812, -1.000e-2
0.813, -1.000e-2
0.814, -1.000e-2
0.815, -9.999e-3
0.816, -9.998e-3
0.817, -9.997e-3
0.818, -9.996e-3
0.819, -9.996e-3
0.820, -9.997e-3
0.821, -9.996e-3
0.822, -9.995e-3
0.823, -9.994e-3
0.824, -9.993e-3
0.825, -9.992e-3
0.826, -9.991e-3
0.827, -9.990e-3
0.828, -9.989e-3
0.829, -9.988e-3
0.830, -9.987e-3
0.831, -9.986e-3
0.832, -9.985e-3
0.833, -9.984e-3
0.834, -9.983e-3
0.835, -9.982e-3
0.836, -9.981e-3
0.837, -9.980e-3
0.838, -9.979e-3
0.839, -9.978e-3
0.840, -9.977e-3
0.841, -9.976e-3
0.842, -9.975e-3
0.843, -9.974e-3
0.844, -9.972e-3
0.845, -9.971e-3
0.846, -9.970e-3
0.847, -9.969e-3
0.848, -9.968e-3
0.849, -9.967e-3
0.850, -9.966e-3
0.851, -9.965e-3
0.852, -9.965e-3
0.853, -9.963e-3
0.854, -9.962e-3
0.855, -9.961e-3
0.856, -9.960e-3
0.857, -9.959e-3
0.858, -9.958e-3
0.859, -9.957e-3
0.860, -9.956e-3
0.861, -9.955e-3
0.862, -9.954e-3
0.863, -9.953e-3
0.864, -9.952e-3
0.865, -9.951e-3
0.866, -9.950e-3
0.867, -9.949e-3
0.868, -9.948e-3
0.869, -9.947e-3
0.870, -9.946e-3
0.871, -9.945e-3
0.872, -9.945e-3
0.873, -9.944e-3
0.874, -9.943e-3
0.875, -9.942e-3
0.876, -9.941e-3
0.877, -9.941e-3
0.878, -9.941e-3
0.879, -9.940e-3
0.880, -9.939e-3
0.881, -9.938e-3
0.882, -9.938e-3
0.883, -9.938e-3
0.884, -9.937e-3
0.885, -9.936e-3
0.886, -9.936e-3
0.887, -9.935e-3
0.888, -9.934e-3
0.889, -9.934e-3
0.890, -9.934e-3
0.891, -9.934e-3
0.892, -9.934e-3
0.893, -9.933e-3
0.894, -9.933e-3
0.895, -9.933e-3
0.896, -9.934e-3
0.897, -9.934e-3
0.898, -9.934e-3
0.899, -9.934e-3
0.900, -9.934e-3
0.901, -9.934e-3
0.902, -9.935e-3
0.903, -9.936e-3
0.904, -9.936e-3
0.905, -9.936e-3
0.906, -9.937e-3
0.907, -9.937e-3
0.908, -9.938e-3
0.909, -9.938e-3
0.910, -9.939e-3
0.911, -9.939e-3
0.912, -9.940e-3
0.913, -9.940e-3
0.914, -9.941e-3
0.915, -9.942e-3
0.916, -9.943e-3
0.917, -9.944e-3
0.918, -9.945e-3
0.919, -9.947e-3
0.920, -9.948e-3
0.921, -9.949e-3
0.922, -9.951e-3
0.923, -9.953e-3
0.924, -9.954e-3
0.925, -9.955e-3
0.926, -9.957e-3
0.927, -9.958e-3
0.928, -9.960e-3
0.929, -9.962e-3
0.930, -9.963e-3
0.931, -9.965e-3
0.932, -9.967e-3
0.933, -9.969e-3
0.934, -9.971e-3
0.935, -9.973e-3
0.936, -9.975e-3
0.937, -9.977e-3
0.938, -9.979e-3
0.939, -9.982e-3
0.940, -9.985e-3
0.941, -9.987e-3
0.942, -9.990e-3
0.943, -9.992e-3
0.944, -9.994e-3
0.945, -9.997e-3
0.946, -1.000e-2
0.947, -1.000e-2
0.948, -1.001e-2
0.949, -1.001e-2
0.950, -1.001e-2
0.951, -1.001e-2
0.952, -1.002e-2
0.953, -1.002e-2
0.954, -1.003e-2
0.955, -1.003e-2
0.956, -1.003e-2
0.957, -1.004e-2
0.958, -1.004e-2
0.959, -1.004e-2
0.960, -1.005e-2
0.961, -1.005e-2
0.962, -1.006e-2
0.963, -1.006e-2
0.964, -1.006e-2
0.965, -1.007e-2
0.966, -1.007e-2
0.967, -1.008e-2
0.968, -1.008e-2
0.969, -1.009e-2
0.970, -1.009e-2
0.971, -1.010e-2
0.972, -1.010e-2
0.973, -1.011e-2
0.974, -1.011e-2
0.975, -1.012e-2
0.976, -1.012e-2
0.977, -1.013e-2
0.978, -1.013e-2
0.979, -1.014e-2
0.980, -1.014e-2
0.981, -1.015e-2
0.982, -1.015e-2
0.983, -1.016e-2
0.984, -1.017e-2
0.985, -1.017e-2
0.986, -1.018e-2
0.987, -1.018e-2
0.988, -1.019e-2
0.989, -1.020e-2
0.990, -1.020e-2
0.991, -1.021e-2
0.992, -1.022e-2
0.993, -1.022e-2
0.994, -1.023e-2
0.995, -1.024e-2
0.996, -1.024e-2
0.997, -1.025e-2
0.998, -1.026e-2
0.999, -1.026e-2
1.000, -1.027e-2
1.001, -1.028e-2
1.002, -1.029e-2
1.003, -1.029e-2
1.004, -1.030e-2
1.005, -1.031e-2
1.006, -1.032e-2
1.007, -1.032e-2
1.008, -1.033e-2
1.009, -1.034e-2
1.010, -1.035e-2
1.011, -1.035e-2
1.012, -1.036e-2
1.013, -1.037e-2
1.014, -1.038e-2
1.015, -1.039e-2
1.016, -1.040e-2
1.017, -1.041e-2
1.018, -1.041e-2
1.019, -1.042e-2
1.020, -1.043e-2
1.021, -1.044e-2
1.022, -1.045e-2
1.023, -1.046e-2
1.024, -1.047e-2
1.025, -1.048e-2
1.026, -1.049e-2
1.027, -1.050e-2
1.028, -1.051e-2
1.029, -1.052e-2
1.030, -1.053e-2
1.031, -1.054e-2
1.032, -1.055e-2
1.033, -1.056e-2
1.034, -1.057e-2
1.035, -1.058e-2
1.036, -1.059e-2
1.037, -1.060e-2
1.038, -1.061e-2
1.039, -1.062e-2
1.040, -1.063e-2
1.041, -1.064e-2
1.042, -1.065e-2
1.043, -1.066e-2
1.044, -1.067e-2
1.045, -1.068e-2
1.046, -1.069e-2
1.047, -1.070e-2
1.048, -1.072e-2
1.049, -1.073e-2
1.050, -1.074e-2
1.051, -1.075e-2
1.052, -1.076e-2
1.053, -1.077e-2
1.054, -1.079e-2
1.055, -1.080e-2
1.056, -1.081e-2
1.057, -1.082e-2
1.058, -1.083e-2
1.059, -1.084e-2
1.060, -1.086e-2
1.061, -1.087e-2
1.062, -1.088e-2
1.063, -1.089e-2
1.064, -1.091e-2
1.065, -1.092e-2
1.066, -1.093e-2
1.067, -1.094e-2
1.068, -1.096e-2
1.069, -1.097e-2
1.070, -1.098e-2
1.071, -1.099e-2
1.072, -1.101e-2
1.073, -1.102e-2
1.074, -1.103e-2
1.075, -1.105e-2
1.076, -1.106e-2
1.077, -1.107e-2
1.078, -1.108e-2
1.079, -1.110e-2
1.080, -1.111e-2
1.081, -1.112e-2
1.082, -1.114e-2
1.083, -1.115e-2
1.084, -1.116e-2
1.085, -1.118e-2
1.086, -1.119e-2
1.087, -1.120e-2
1.088, -1.122e-2
1.089, -1.123e-2
1.090, -1.125e-2
1.091, -1.126e-2
1.092, -1.127e-2
1.093, -1.129e-2
1.094, -1.130e-2
1.095, -1.131e-2
1.096, -1.133e-2
1.097, -1.134e-2
1.098, -1.135e-2
1.099, -1.137e-2
1.100, -1.136e-2
1.099, -1.123e-2
1.098, -1.107e-2
1.097, -1.092e-2
1.096, -1.077e-2
1.095, -1.062e-2
1.094, -1.047e-2
1.093, -1.032e-2
1.092, -1.018e-2
1.091, -1.004e-2
1.090, -9.893e-3
1.089, -9.752e-3
1.088, -9.614e-3
1.087, -9.476e-3
1.086, -9.338e-3
1.085, -9.201e-3
1.084, -9.066e-3
1.083, -8.933e-3
1.082, -8.800e-3
1.081, -8.668e-3
1.080, -8.537e-3
1.079, -8.407e-3
1.078, -8.279e-3
1.077, -8.152e-3
1.076, -8.026e-3
1.075, -7.901e-3
1.074, -7.775e-3
1.073, -7.651e-3
1.072, -7.529e-3
1.071, -7.407e-3
1.070, -7.287e-3
1.069, -7.167e-3
1.068, -7.047e-3
1.067, -6.929e-3
1.066, -6.811e-3
1.065, -6.695e-3
1.064, -6.580e-3
1.063, -6.465e-3
1.062, -6.352e-3
1.061, -6.238e-3
1.060, -6.125e-3
1.059, -6.014e-3
1.058, -5.903e-3
1.057, -5.793e-3
1.056, -5.684e-3
1.055, -5.575e-3
1.054, -5.468e-3
1.053, -5.360e-3
1.052, -5.254e-3
1.051, -5.149e-3
1.050, -5.044e-3
1.049, -4.941e-3
1.048, -4.838e-3
1.047, -4.736e-3
1.046, -4.634e-3
1.045, -4.532e-3
1.044, -4.431e-3
1.043, -4.332e-3
1.042, -4.232e-3
1.041, -4.134e-3
1.040, -4.037e-3
1.039, -3.940e-3
1.038, -3.843e-3
1.037, -3.747e-3
1.036, -3.652e-3
1.035, -3.558e-3
1.034, -3.465e-3
1.033, -3.373e-3
1.032, -3.280e-3
1.031, -3.188e-3
1.030, -3.097e-3
1.029, -3.005e-3
1.028, -2.915e-3
1.027, -2.826e-3
1.026, -2.737e-3
1.025, -2.649e-3
1.024, -2.561e-3
1.023, -2.474e-3
1.022, -2.388e-3
1.021, -2.302e-3
1.020, -2.216e-3
1.019, -2.131e-3
1.018, -2.047e-3
1.017, -1.963e-3
1.016, -1.881e-3
1.015, -1.798e-3
1.014, -1.717e-3
1.013, -1.636e-3
1.012, -1.555e-3
1.011, -1.474e-3
1.010, -1.393e-3
1.009, -1.314e-3
1.008, -1.236e-3
1.007, -1.158e-3
1.006, -1.080e-3
1.005, -1.003e-3
1.004, -9.258e-4
1.003, -8.501e-4
1.002, -7.743e-4
1.001, -6.989e-4
1.000, -6.237e-4
0.999, -5.492e-4
0.998, -4.757e-4
0.997, -4.026e-4
0.996, -3.307e-4
0.995, -2.595e-4
0.994, -1.876e-4
0.993, -1.167e-4
0.992, -4.610e-5
0.991, 2.439e-5
0.990, 9.482e-5
0.989, 1.647e-4
0.988, 2.334e-4
0.987, 3.014e-4
0.986, 3.693e-4
0.985, 4.366e-4
0.984, 5.038e-4
0.983, 5.704e-4
0.982, 6.364e-4
0.981, 7.017e-4
0.980, 7.668e-4
0.979, 8.317e-4
0.978, 8.973e-4
0.977, 9.612e-4
0.976, 1.025e-3
0.975, 1.087e-3
0.974, 1.150e-3
0.973, 1.212e-3
0.972, 1.273e-3
0.971, 1.335e-3
0.970, 1.395e-3
0.969, 1.455e-3
0.968, 1.515e-3
0.967, 1.575e-3
0.966, 1.635e-3
0.965, 1.695e-3
0.964, 1.753e-3
0.963, 1.811e-3
0.962, 1.868e-3
0.961, 1.925e-3
0.960, 1.982e-3
0.959, 2.039e-3
0.958, 2.095e-3
0.957, 2.151e-3
0.956, 2.206e-3
0.955, 2.260e-3
0.954, 2.315e-3
0.953, 2.369e-3
0.952, 2.423e-3
0.951, 2.477e-3
0.950, 2.530e-3
0.949, 2.582e-3
0.948, 2.634e-3
0.947, 2.686e-3
0.946, 2.738e-3
0.945, 2.789e-3
0.944, 2.838e-3
0.943, 2.889e-3
0.942, 2.939e-3
0.941, 2.989e-3
0.940, 3.038e-3
0.939, 3.087e-3
0.938, 3.135e-3
0.937, 3.183e-3
0.936, 3.231e-3
0.935, 3.280e-3
0.934, 3.327e-3
0.933, 3.373e-3
0.932, 3.420e-3
0.931, 3.466e-3
0.930, 3.511e-3
0.929, 3.557e-3
0.928, 3.602e-3
0.927, 3.647e-3
0.926, 3.691e-3
0.925, 3.735e-3
0.924, 3.779e-3
0.923, 3.822e-3
0.922, 3.865e-3
0.921, 3.909e-3
0.920, 3.952e-3
0.919, 3.994e-3
0.918, 4.036e-3
0.917, 4.078e-3
0.916, 4.119e-3
0.915, 4.160e-3
0.914, 4.200e-3
0.913, 4.240e-3
0.912, 4.280e-3
0.911, 4.319e-3
0.910, 4.358e-3
0.909, 4.397e-3
0.908, 4.435e-3
0.907, 4.473e-3
0.906, 4.511e-3
0.905, 4.548e-3
0.904, 4.586e-3
0.903, 4.623e-3
0.902, 4.659e-3
0.901, 4.696e-3
0.900, 4.732e-3
0.899, 4.768e-3
0.898, 4.804e-3
0.897, 4.840e-3
0.896, 4.875e-3
0.895, 4.909e-3
0.894, 4.944e-3
0.893, 4.978e-3
0.892, 5.011e-3
0.891, 5.045e-3
0.890, 5.078e-3
0.889, 5.111e-3
0.888, 5.143e-3
0.887, 5.176e-3
0.886, 5.208e-3
0.885, 5.240e-3
0.884, 5.271e-3
0.883, 5.302e-3
0.882, 5.333e-3
0.881, 5.364e-3
0.880, 5.394e-3
0.879, 5.424e-3
0.878, 5.453e-3
0.877, 5.483e-3
0.876, 5.513e-3
0.875, 5.541e-3
0.874, 5.570e-3
0.873, 5.600e-3
0.872, 5.628e-3
0.871, 5.656e-3
0.870, 5.683e-3
0.869, 5.711e-3
0.868, 5.738e-3
0.867, 5.765e-3
0.866, 5.791e-3
0.865, 5.817e-3
0.864, 5.843e-3
0.863, 5.869e-3
0.862, 5.895e-3
0.861, 5.920e-3
0.860, 5.944e-3
0.859, 5.968e-3
0.858, 5.992e-3
0.857, 6.016e-3
0.856, 6.040e-3
0.855, 6.064e-3
0.854, 6.088e-3
0.853, 6.110e-3
0.852, 6.133e-3
0.851, 6.156e-3
0.850, 6.178e-3
0.849, 6.201e-3
0.848, 6.222e-3
0.847, 6.244e-3
0.846, 6.265e-3
0.845, 6.287e-3
0.844, 6.308e-3
0.843, 6.328e-3
0.842, 6.349e-3
0.841, 6.369e-3
0.840, 6.390e-3
0.839, 6.409e-3
0.838, 6.429e-3
0.837, 6.448e-3
0.836, 6.467e-3
0.835, 6.486e-3
0.834, 6.504e-3
0.833, 6.522e-3
0.832, 6.540e-3
0.831, 6.558e-3
0.830, 6.575e-3
0.829, 6.593e-3
0.828, 6.609e-3
0.827, 6.626e-3
0.826, 6.643e-3
0.825, 6.659e-3
0.824, 6.676e-3
0.823, 6.692e-3
0.822, 6.707e-3
0.821, 6.723e-3
0.820, 6.738e-3
0.819, 6.754e-3
0.818, 6.770e-3
0.817, 6.785e-3
0.816, 6.799e-3
0.815, 6.813e-3
0.814, 6.827e-3
0.813, 6.841e-3
0.812, 6.855e-3
0.811, 6.868e-3
0.810, 6.881e-3
0.809, 6.894e-3
0.808, 6.906e-3
0.807, 6.919e-3
0.806, 6.931e-3
0.805, 6.943e-3
0.804, 6.954e-3
0.803, 6.966e-3
0.802, 6.977e-3
0.801, 6.989e-3
0.800, 7.000e-3
0.799, 7.011e-3
0.798, 7.021e-3
0.797, 7.032e-3
0.796, 7.042e-3
0.795, 7.052e-3
0.794, 7.062e-3
0.793, 7.072e-3
0.792, 7.082e-3
0.791, 7.091e-3
0.790, 7.100e-3
0.789, 7.109e-3
0.788, 7.118e-3
0.787, 7.127e-3
0.786, 7.135e-3
0.785, 7.144e-3
0.784, 7.153e-3
0.783, 7.161e-3
0.782, 7.168e-3
0.781, 7.176e-3
0.780, 7.184e-3
0.779, 7.191e-3
0.778, 7.199e-3
0.777, 7.205e-3
0.776, 7.212e-3
0.775, 7.219e-3
0.774, 7.225e-3
0.773, 7.232e-3
0.772, 7.238e-3
0.771, 7.244e-3
0.770, 7.250e-3
0.769, 7.256e-3
0.768, 7.262e-3
0.767, 7.267e-3
0.766, 7.273e-3
0.765, 7.278e-3
0.764, 7.283e-3
0.763, 7.287e-3
0.762, 7.292e-3
0.761, 7.297e-3
0.760, 7.302e-3
0.759, 7.307e-3
0.758, 7.311e-3
0.757, 7.314e-3
0.756, 7.318e-3
0.755, 7.322e-3
0.754, 7.326e-3
0.753, 7.330e-3
0.752, 7.333e-3
0.751, 7.336e-3
0.750, 7.340e-3
0.749, 7.343e-3
0.748, 7.346e-3
0.747, 7.350e-3
0.746, 7.353e-3
0.745, 7.355e-3
0.744, 7.358e-3
0.743, 7.360e-3
0.742, 7.363e-3
0.741, 7.366e-3
0.740, 7.368e-3
0.739, 7.371e-3
0.738, 7.373e-3
0.737, 7.375e-3
0.736, 7.377e-3
0.735, 7.379e-3
0.734, 7.381e-3
0.733, 7.383e-3
0.732, 7.384e-3
0.731, 7.385e-3
0.730, 7.387e-3
0.729, 7.388e-3
0.728, 7.390e-3
0.727, 7.391e-3
0.726, 7.392e-3
0.725, 7.394e-3
0.724, 7.395e-3
0.723, 7.396e-3
0.722, 7.397e-3
0.721, 7.398e-3
0.720, 7.399e-3
0.719, 7.400e-3
0.718, 7.400e-3
0.717, 7.401e-3
0.716, 7.403e-3
0.715, 7.403e-3
0.714, 7.404e-3
0.713, 7.404e-3
0.712, 7.405e-3
0.711, 7.405e-3
0.710, 7.406e-3
0.709, 7.406e-3
0.708, 7.407e-3
0.707, 7.407e-3
0.706, 7.407e-3
0.705, 7.407e-3
0.704, 7.407e-3
0.703, 7.408e-3
0.702, 7.408e-3
0.701, 7.408e-3
0.700, 7.408e-3
0.699, 7.408e-3
0.698, 7.408e-3
0.697, 7.408e-3
0.696, 7.408e-3
0.695, 7.408e-3
0.694, 7.407e-3
0.693, 7.407e-3
0.692, 7.407e-3
0.691, 7.407e-3
0.690, 7.407e-3
0.689, 7.406e-3
0.688, 7.406e-3
0.687, 7.406e-3
0.686, 7.405e-3
0.685, 7.406e-3
0.684, 7.405e-3
0.683, 7.405e-3
0.682, 7.404e-3
0.681, 7.404e-3
0.680, 7.404e-3
0.679, 7.404e-3
0.678, 7.403e-3
0.677, 7.403e-3
0.676, 7.402e-3
0.675, 7.402e-3
0.674, 7.402e-3
0.673, 7.402e-3
0.672, 7.402e-3
0.671, 7.402e-3
0.670, 7.401e-3
0.669, 7.401e-3
0.668, 7.401e-3
0.667, 7.401e-3
0.666, 7.401e-3
0.665, 7.401e-3
0.664, 7.401e-3
0.663, 7.401e-3
0.662, 7.400e-3
0.661, 7.400e-3
0.660, 7.400e-3
0.659, 7.400e-3
0.658, 7.400e-3
0.657, 7.399e-3
0.656, 7.399e-3
0.655, 7.399e-3
0.654, 7.399e-3
0.653, 7.399e-3
0.652, 7.399e-3
0.651, 7.399e-3
0.650, 7.399e-3
0.649, 7.399e-3
0.648, 7.399e-3
0.647, 7.399e-3
0.646, 7.399e-3
0.645, 7.400e-3
0.644, 7.400e-3
0.643, 7.400e-3
0.642, 7.400e-3
0.641, 7.400e-3
0.640, 7.401e-3
0.639, 7.401e-3
0.638, 7.401e-3
0.637, 7.402e-3
0.636, 7.402e-3
0.635, 7.403e-3
0.634, 7.403e-3
0.633, 7.404e-3
0.632, 7.404e-3
0.631, 7.405e-3
0.630, 7.405e-3
0.629, 7.406e-3
0.628, 7.406e-3
0.627, 7.407e-3
0.626, 7.407e-3
0.625, 7.408e-3
0.624, 7.409e-3
0.623, 7.410e-3
0.622, 7.410e-3
0.621, 7.412e-3
0.620, 7.412e-3
0.619, 7.413e-3
0.618, 7.414e-3
0.617, 7.415e-3
0.616, 7.416e-3
0.615, 7.418e-3
0.614, 7.419e-3
0.613, 7.420e-3
0.612, 7.421e-3
0.611, 7.422e-3
0.610, 7.424e-3
0.609, 7.425e-3
0.608, 7.426e-3
0.607, 7.428e-3
0.606, 7.429e-3
0.605, 7.431e-3
0.604, 7.432e-3
0.603, 7.433e-3
0.602, 7.435e-3
0.601, 7.436e-3
0.600, 7.437e-3
0.599, 7.439e-3
0.598, 7.441e-3
0.597, 7.442e-3
0.596, 7.444e-3
0.595, 7.446e-3
0.594, 7.448e-3
0.593, 7.450e-3
0.592, 7.452e-3
0.591, 7.453e-3
0.590, 7.455e-3
0.589, 7.457e-3
0.588, 7.460e-3
0.587, 7.462e-3
0.586, 7.464e-3
0.585, 7.466e-3
0.584, 7.468e-3
0.583, 7.470e-3
0.582, 7.473e-3
0.581, 7.475e-3
0.580, 7.477e-3
0.579, 7.479e-3
0.578, 7.482e-3
0.577, 7.484e-3
0.576, 7.486e-3
0.575, 7.489e-3
0.574, 7.491e-3
0.573, 7.494e-3
0.572, 7.496e-3
0.571, 7.498e-3
0.570, 7.501e-3
0.569, 7.504e-3
0.568, 7.507e-3
0.567, 7.509e-3
0.566, 7.512e-3
0.565, 7.515e-3
0.564, 7.518e-3
0.563, 7.521e-3
0.562, 7.523e-3
0.561, 7.526e-3
0.560, 7.528e-3
0.559, 7.531e-3
0.558, 7.534e-3
0.557, 7.537e-3
0.556, 7.540e-3
0.555, 7.543e-3
0.554, 7.546e-3
0.553, 7.549e-3
0.552, 7.552e-3
0.551, 7.555e-3
0.550, 7.558e-3
0.549, 7.562e-3
0.548, 7.565e-3
0.547, 7.568e-3
0.546, 7.571e-3
0.545, 7.574e-3
0.544, 7.578e-3
0.543, 7.581e-3
0.542, 7.585e-3
0.541, 7.589e-3
0.540, 7.592e-3
0.539, 7.596e-3
0.538, 7.600e-3
0.537, 7.603e-3
0.536, 7.607e-3
0.535, 7.611e-3
0.534, 7.614e-3
0.533, 7.618e-3
0.532, 7.622e-3
0.531, 7.626e-3
0.530, 7.630e-3
0.529, 7.633e-3
0.528, 7.637e-3
0.527, 7.641e-3
0.526, 7.645e-3
0.525, 7.649e-3
0.524, 7.653e-3
0.523, 7.657e-3
0.522, 7.661e-3
0.521, 7.665e-3
0.520, 7.669e-3
0.519, 7.673e-3
0.518, 7.677e-3
0.517, 7.681e-3
0.516, 7.685e-3
0.515, 7.689e-3
0.514, 7.693e-3
0.513, 7.698e-3
0.512, 7.702e-3
0.511, 7.707e-3
0.510, 7.712e-3
0.509, 7.716e-3
0.508, 7.720e-3
0.507, 7.724e-3
0.506, 7.729e-3
0.505, 7.733e-3
0.504, 7.737e-3
0.503, 7.742e-3
0.502, 7.746e-3
0.501, 7.750e-3
0.500, 7.755e-3
0.499, 7.759e-3
0.498, 7.764e-3
0.497, 7.768e-3
0.496, 7.773e-3
0.495, 7.777e-3
0.494, 7.782e-3
0.493, 7.787e-3
0.492, 7.791e-3
0.491, 7.796e-3
0.490, 7.800e-3
0.489, 7.805e-3
0.488, 7.810e-3
0.487, 7.815e-3
0.486, 7.820e-3
0.485, 7.824e-3
0.484, 7.829e-3
0.483, 7.834e-3
0.482, 7.839e-3
0.481, 7.843e-3
0.480, 7.848e-3
0.479, 7.853e-3
0.478, 7.858e-3
0.477, 7.863e-3
0.476, 7.868e-3
0.475, 7.872e-3
0.474, 7.878e-3
0.473, 7.883e-3
0.472, 7.888e-3
0.471, 7.893e-3
0.470, 7.898e-3
0.469, 7.903e-3
0.468, 7.908e-3
0.467, 7.913e-3
0.466, 7.918e-3
0.465, 7.924e-3
0.464, 7.929e-3
0.463, 7.934e-3
0.462, 7.939e-3
0.461, 7.944e-3
0.460, 7.950e-3
0.459, 7.955e-3
0.458, 7.960e-3
0.457, 7.965e-3
0.456, 7.970e-3
0.455, 7.975e-3
0.454, 7.981e-3
0.453, 7.986e-3
0.452, 7.991e-3
0.451, 7.996e-3
0.450, 8.001e-3
0.449, 8.006e-3
0.448, 8.012e-3
0.447, 8.017e-3
0.446, 8.021e-3
0.445, 8.027e-3
0.444, 8.032e-3
0.443, 8.037e-3
0.442, 8.043e-3
0.441, 8.048e-3
0.440, 8.053e-3
0.439, 8.058e-3
0.438, 8.063e-3
0.437, 8.068e-3
0.436, 8.074e-3
0.435, 8.079e-3
0.434, 8.084e-3
0.433, 8.089e-3
0.432, 8.095e-3
0.431, 8.100e-3
0.430, 8.105e-3
0.429, 8.110e-3
0.428, 8.115e-3
0.427, 8.120e-3
0.426, 8.125e-3
0.425, 8.130e-3
0.424, 8.136e-3
0.423, 8.141e-3
0.422, 8.146e-3
0.421, 8.151e-3
0.420, 8.156e-3
0.419, 8.161e-3
0.418, 8.166e-3
0.417, 8.171e-3
0.416, 8.176e-3
0.415, 8.182e-3
0.414, 8.186e-3
0.413, 8.191e-3
0.412, 8.196e-3
0.411, 8.201e-3
0.410, 8.207e-3
0.409, 8.212e-3
0.408, 8.217e-3
0.407, 8.222e-3
0.406, 8.227e-3
0.405, 8.233e-3
0.404, 8.238e-3
0.403, 8.243e-3
0.402, 8.248e-3
0.401, 8.252e-3
0.400, 8.258e-3
0.399, 8.262e-3
0.398, 8.267e-3
0.397, 8.272e-3
0.396, 8.277e-3
0.395, 8.282e-3
0.394, 8.287e-3
0.393, 8.292e-3
0.392, 8.297e-3
0.391, 8.302e-3
0.390, 8.307e-3
0.389, 8.312e-3
0.388, 8.317e-3
0.387, 8.322e-3
0.386, 8.327e-3
0.385, 8.332e-3
0.384, 8.337e-3
0.383, 8.343e-3
0.382, 8.347e-3
0.381, 8.352e-3
0.380, 8.357e-3
0.379, 8.362e-3
0.378, 8.367e-3
0.377, 8.372e-3
0.376, 8.377e-3
0.375, 8.382e-3
0.374, 8.387e-3
0.373, 8.392e-3
0.372, 8.397e-3
0.371, 8.402e-3
0.370, 8.407e-3
0.369, 8.411e-3
0.368, 8.416e-3
0.367, 8.421e-3
0.366, 8.426e-3
0.365, 8.431e-3
0.364, 8.436e-3
0.363, 8.441e-3
0.362, 8.446e-3
0.361, 8.451e-3
0.360, 8.455e-3
0.359, 8.460e-3
0.358, 8.465e-3
0.357, 8.470e-3
0.356, 8.475e-3
0.355, 8.480e-3
0.354, 8.485e-3
0.353, 8.490e-3
0.352, 8.495e-3
0.351, 8.500e-3
0.350, 8.505e-3
0.349, 8.509e-3
0.348, 8.514e-3
0.347, 8.518e-3
0.346, 8.523e-3
0.345, 8.528e-3
0.344, 8.532e-3
0.343, 8.537e-3
0.342, 8.542e-3
0.341, 8.547e-3
0.340, 8.551e-3
0.339, 8.556e-3
0.338, 8.561e-3
0.337, 8.565e-3
0.336, 8.570e-3
0.335, 8.575e-3
0.334, 8.579e-3
0.333, 8.584e-3
0.332, 8.589e-3
0.331, 8.593e-3
0.330, 8.598e-3
0.329, 8.603e-3
0.328, 8.607e-3
0.327, 8.612e-3
0.326, 8.617e-3
0.325, 8.622e-3
0.324, 8.627e-3
0.323, 8.631e-3
0.322, 8.636e-3
0.321, 8.640e-3
0.320, 8.645e-3
0.319, 8.649e-3
0.318, 8.654e-3
0.317, 8.659e-3
0.316, 8.663e-3
0.315, 8.668e-3
0.314, 8.673e-3
0.313, 8.677e-3
0.312, 8.682e-3
0.311, 8.686e-3
0.310, 8.690e-3
0.309, 8.695e-3
0.308, 8.700e-3
0.307, 8.705e-3
0.306, 8.711e-3
0.305, 8.715e-3
0.304, 8.720e-3
0.303, 8.725e-3
0.302, 8.729e-3
0.301, 8.734e-3
0.300, 8.739e-3
0.299, 8.744e-3
0.298, 8.749e-3
0.297, 8.754e-3
0.296, 8.758e-3
0.295, 8.763e-3
0.294, 8.767e-3
0.293, 8.772e-3
0.292, 8.777e-3
0.291, 8.781e-3
0.290, 8.786e-3
0.289, 8.790e-3
0.288, 8.795e-3
0.287, 8.800e-3
0.286, 8.804e-3
0.285, 8.809e-3
0.284, 8.813e-3
0.283, 8.818e-3
0.282, 8.822e-3
0.281, 8.826e-3
0.280, 8.831e-3
0.279, 8.836e-3
0.278, 8.840e-3
0.277, 8.844e-3
0.276, 8.849e-3
0.275, 8.853e-3
0.274, 8.858e-3
0.273, 8.863e-3
0.272, 8.867e-3
0.271, 8.872e-3
0.270, 8.876e-3
0.269, 8.880e-3
0.268, 8.885e-3
0.267, 8.889e-3
0.266, 8.894e-3
0.265, 8.898e-3
0.264, 8.902e-3
0.263, 8.906e-3
0.262, 8.910e-3
0.261, 8.915e-3
0.260, 8.919e-3
0.259, 8.923e-3
0.258, 8.927e-3
0.257, 8.932e-3
0.256, 8.936e-3
0.255, 8.941e-3
0.254, 8.945e-3
0.253, 8.949e-3
0.252, 8.953e-3
0.251, 8.957e-3
0.250, 8.961e-3
0.249, 8.965e-3
0.248, 8.969e-3
0.247, 8.974e-3
0.246, 8.978e-3
0.245, 8.982e-3
0.244, 8.986e-3
0.243, 8.990e-3
0.242, 8.994e-3
0.241, 8.998e-3
0.240, 9.001e-3
0.239, 9.005e-3
0.238, 9.008e-3
0.237, 9.012e-3
0.236, 9.016e-3
0.235, 9.020e-3
0.234, 9.024e-3
0.233, 9.027e-3
0.232, 9.030e-3
0.231, 9.034e-3
0.230, 9.038e-3
0.229, 9.041e-3
0.228, 9.044e-3
0.227, 9.047e-3
0.226, 9.050e-3
0.225, 9.053e-3
0.224, 9.056e-3
0.223, 9.060e-3
0.222, 9.062e-3
0.221, 9.066e-3
0.220, 9.068e-3
0.219, 9.071e-3
0.218, 9.074e-3
0.217, 9.077e-3
0.216, 9.079e-3
0.215, 9.082e-3
0.214, 9.084e-3
0.213, 9.087e-3
0.212, 9.090e-3
0.211, 9.092e-3
0.210, 9.094e-3
0.209, 9.096e-3
0.208, 9.098e-3
0.207, 9.101e-3
0.206, 9.103e-3
0.205, 9.105e-3
0.204, 9.108e-3
0.203, 9.110e-3
0.202, 9.112e-3
0.201, 9.113e-3
0.200, 9.115e-3
0.199, 9.117e-3
0.198, 9.119e-3
0.197, 9.121e-3
0.196, 9.122e-3
0.195, 9.124e-3
0.194, 9.125e-3
0.193, 9.127e-3
0.192, 9.128e-3
0.191, 9.129e-3
0.190, 9.130e-3
0.189, 9.132e-3
0.188, 9.133e-3
0.187, 9.134e-3
0.186, 9.135e-3
0.185, 9.136e-3
0.184, 9.137e-3
0.183, 9.138e-3
0.182, 9.139e-3
0.181, 9.139e-3
0.180, 9.140e-3
0.179, 9.140e-3
0.178, 9.141e-3
0.177, 9.141e-3
0.176, 9.142e-3
0.175, 9.142e-3
0.174, 9.142e-3
0.173, 9.142e-3
0.172, 9.142e-3
0.171, 9.142e-3
0.170, 9.142e-3
0.169, 9.141e-3
0.168, 9.141e-3
0.167, 9.141e-3
0.166, 9.141e-3
0.165, 9.140e-3
0.164, 9.140e-3
0.163, 9.139e-3
0.162, 9.139e-3
0.161, 9.138e-3
0.160, 9.138e-3
0.159, 9.137e-3
0.158, 9.136e-3
0.157, 9.136e-3
0.156, 9.134e-3
0.155, 9.134e-3
0.154, 9.133e-3
0.153, 9.132e-3
0.152, 9.130e-3
0.151, 9.129e-3
0.150, 9.128e-3
0.149, 9.127e-3
0.148, 9.125e-3
0.147, 9.124e-3
0.146, 9.122e-3
0.145, 9.121e-3
0.144, 9.119e-3
0.143, 9.118e-3
0.142, 9.116e-3
0.141, 9.114e-3
0.140, 9.112e-3
0.139, 9.110e-3
0.138, 9.108e-3
0.137, 9.106e-3
0.136, 9.104e-3
0.135, 9.102e-3
0.134, 9.100e-3
0.133, 9.098e-3
0.132, 9.096e-3
0.131, 9.094e-3
0.130, 9.092e-3
0.129, 9.090e-3
0.128, 9.088e-3
0.127, 9.086e-3
0.126, 9.084e-3
0.125, 9.082e-3
0.124, 9.079e-3
0.123, 9.077e-3
0.122, 9.074e-3
0.121, 9.072e-3
0.120, 9.070e-3
0.119, 9.067e-3
0.118, 9.065e-3
0.117, 9.062e-3
0.116, 9.060e-3
0.115, 9.057e-3
0.114, 9.055e-3
0.113, 9.052e-3
0.112, 9.049e-3
0.111, 9.047e-3
0.110, 9.044e-3
0.109, 9.042e-3
0.108, 9.039e-3
0.107, 9.036e-3
0.106, 9.033e-3
0.105, 9.031e-3
0.104, 9.028e-3
0.103, 9.025e-3
0.102, 9.023e-3
0.101, 9.021e-3
0.100, 9.018e-3
0.099, 9.015e-3
0.098, 9.013e-3
0.097, 9.010e-3
0.096, 9.008e-3
0.095, 9.005e-3
0.094, 9.003e-3
0.093, 9.000e-3
0.092, 8.997e-3
0.091, 8.995e-3
0.090, 8.992e-3
0.089, 8.989e-3
0.088, 8.987e-3
0.087, 8.984e-3
0.086, 8.981e-3
0.085, 8.979e-3
0.084, 8.976e-3
0.083, 8.974e-3
0.082, 8.971e-3
0.081, 8.969e-3
0.080, 8.967e-3
0.079, 8.964e-3
0.078, 8.962e-3
0.077, 8.960e-3
0.076, 8.957e-3
0.075, 8.955e-3
0.074, 8.953e-3
0.073, 8.951e-3
0.072, 8.949e-3
0.071, 8.946e-3
0.070, 8.944e-3
0.069, 8.942e-3
0.068, 8.940e-3
0.067, 8.938e-3
0.066, 8.936e-3
0.065, 8.934e-3
0.064, 8.932e-3
0.063, 8.930e-3
0.062, 8.928e-3
0.061, 8.927e-3
0.060, 8.925e-3
0.059, 8.923e-3
0.058, 8.922e-3
0.057, 8.921e-3
0.056, 8.919e-3
0.055, 8.918e-3
0.054, 8.916e-3
0.053, 8.915e-3
0.052, 8.913e-3
0.051, 8.912e-3
0.050, 8.911e-3
0.049, 8.910e-3
0.048, 8.909e-3
0.047, 8.908e-3
0.046, 8.906e-3
0.045, 8.906e-3
0.044, 8.905e-3
0.043, 8.904e-3
0.042, 8.903e-3
0.041, 8.903e-3
0.040, 8.902e-3
0.039, 8.901e-3
0.038, 8.901e-3
0.037, 8.901e-3
0.036, 8.900e-3
0.035, 8.899e-3
0.034, 8.899e-3
0.033, 8.899e-3
0.032, 8.899e-3
0.031, 8.899e-3
0.030, 8.899e-3
0.029, 8.899e-3
0.028, 8.900e-3
0.027, 8.900e-3
0.026, 8.900e-3
0.025, 8.900e-3
0.024, 8.901e-3
0.023, 8.902e-3
0.022, 8.902e-3
0.021, 8.903e-3
0.020, 8.904e-3
0.019, 8.905e-3
0.018, 8.906e-3
0.017, 8.907e-3
0.016, 8.908e-3
0.015, 8.909e-3
0.014, 8.911e-3
0.013, 8.912e-3
0.012, 8.913e-3
0.011, 8.915e-3
0.010, 8.917e-3
0.009, 8.919e-3
0.008, 8.920e-3
0.007, 8.922e-3
0.006, 8.924e-3
0.005, 8.926e-3
0.004, 8.928e-3
0.003, 8.931e-3
0.002, 8.933e-3
0.001, 8.935e-3
0.000, 8.938e-3
-0.001, 8.942e-3
-0.002, 8.944e-3
-0.003, 8.947e-3
-0.004, 8.949e-3
-0.005, 8.952e-3
-0.006, 8.954e-3
-0.007, 8.958e-3
-0.008, 8.961e-3
-0.009, 8.964e-3
-0.010, 8.967e-3
-0.011, 8.971e-3
-0.012, 8.975e-3
-0.013, 8.978e-3
-0.014, 8.982e-3
-0.015, 8.985e-3
-0.016, 8.990e-3
-0.017, 8.994e-3
-0.018, 8.998e-3
-0.019, 9.002e-3
-0.020, 9.007e-3
-0.021, 9.011e-3
-0.022, 9.016e-3
-0.023, 9.020e-3
-0.024, 9.024e-3
-0.025, 9.029e-3
-0.026, 9.034e-3
-0.027, 9.039e-3
-0.028, 9.044e-3
-0.029, 9.048e-3
-0.030, 9.054e-3
-0.031, 9.059e-3
-0.032, 9.064e-3
-0.033, 9.070e-3
-0.034, 9.075e-3
-0.035, 9.081e-3
-0.036, 9.086e-3
-0.037, 9.091e-3
-0.038, 9.096e-3
-0.039, 9.102e-3
-0.040, 9.108e-3
-0.041, 9.114e-3
-0.042, 9.121e-3
-0.043, 9.127e-3
-0.044, 9.134e-3
-0.045, 9.141e-3
-0.046, 9.148e-3
-0.047, 9.155e-3
-0.048, 9.162e-3
-0.049, 9.169e-3
-0.050, 9.175e-3
-0.051, 9.183e-3
-0.052, 9.190e-3
-0.053, 9.198e-3
-0.054, 9.205e-3
-0.055, 9.213e-3
-0.056, 9.221e-3
-0.057, 9.230e-3
-0.058, 9.238e-3
-0.059, 9.246e-3
-0.060, 9.255e-3
-0.061, 9.263e-3
-0.062, 9.272e-3
-0.063, 9.281e-3
-0.064, 9.290e-3
-0.065, 9.298e-3
-0.066, 9.307e-3
-0.067, 9.317e-3
-0.068, 9.326e-3
-0.069, 9.335e-3
-0.070, 9.345e-3
-0.071, 9.355e-3
-0.072, 9.365e-3
-0.073, 9.375e-3
-0.074, 9.385e-3
-0.075, 9.395e-3
-0.076, 9.406e-3
-0.077, 9.416e-3
-0.078, 9.427e-3
-0.079, 9.438e-3
-0.080, 9.448e-3
-0.081, 9.459e-3
-0.082, 9.470e-3
-0.083, 9.481e-3
-0.084, 9.493e-3
-0.085, 9.504e-3
-0.086, 9.515e-3
-0.087, 9.527e-3
-0.088, 9.538e-3
-0.089, 9.550e-3
-0.090, 9.562e-3
-0.091, 9.574e-3
-0.092, 9.586e-3
-0.093, 9.598e-3
-0.094, 9.610e-3
-0.095, 9.622e-3
-0.096, 9.635e-3
-0.097, 9.648e-3
-0.098, 9.661e-3
-0.099, 9.673e-3
