Mar. 10, 2025   11:23:26
Cyclic Voltammetry
File: f:\catholicate college\new ruo2\ruo2 scr 0.1 [-0.1-1.1].txt
Data Source:  Experiment
Instrument Model:  CHI6087E
Header: 
Note: 

Init E (V) = -0.1
High E (V) = 1.1
Low E (V) = -0.1
Init P/N = P
Scan Rate (V/s) = 0.1
Segment = 4
Sample Interval (V) = 0.001
Quiet Time (sec) = 2
Sensitivity (A/V) = 0.01

Results:

Channel 1:
Segment 1:

Segment 2:

Segment 3:

Segment 4:

Potential/V, Current/A

-0.100, 2.033e-2
-0.099, 2.018e-2
-0.098, 2.004e-2
-0.097, 1.990e-2
-0.096, 1.975e-2
-0.095, 1.961e-2
-0.094, 1.947e-2
-0.093, 1.933e-2
-0.092, 1.920e-2
-0.091, 1.906e-2
-0.090, 1.893e-2
-0.089, 1.879e-2
-0.088, 1.866e-2
-0.087, 1.852e-2
-0.086, 1.839e-2
-0.085, 1.826e-2
-0.084, 1.813e-2
-0.083, 1.800e-2
-0.082, 1.787e-2
-0.081, 1.775e-2
-0.080, 1.762e-2
-0.079, 1.749e-2
-0.078, 1.737e-2
-0.077, 1.724e-2
-0.076, 1.712e-2
-0.075, 1.699e-2
-0.074, 1.687e-2
-0.073, 1.675e-2
-0.072, 1.663e-2
-0.071, 1.651e-2
-0.070, 1.639e-2
-0.069, 1.627e-2
-0.068, 1.615e-2
-0.067, 1.604e-2
-0.066, 1.592e-2
-0.065, 1.580e-2
-0.064, 1.569e-2
-0.063, 1.557e-2
-0.062, 1.546e-2
-0.061, 1.534e-2
-0.060, 1.523e-2
-0.059, 1.512e-2
-0.058, 1.501e-2
-0.057, 1.489e-2
-0.056, 1.478e-2
-0.055, 1.467e-2
-0.054, 1.456e-2
-0.053, 1.445e-2
-0.052, 1.435e-2
-0.051, 1.424e-2
-0.050, 1.413e-2
-0.049, 1.402e-2
-0.048, 1.392e-2
-0.047, 1.381e-2
-0.046, 1.371e-2
-0.045, 1.360e-2
-0.044, 1.350e-2
-0.043, 1.339e-2
-0.042, 1.329e-2
-0.041, 1.319e-2
-0.040, 1.308e-2
-0.039, 1.298e-2
-0.038, 1.288e-2
-0.037, 1.278e-2
-0.036, 1.268e-2
-0.035, 1.258e-2
-0.034, 1.248e-2
-0.033, 1.238e-2
-0.032, 1.228e-2
-0.031, 1.218e-2
-0.030, 1.208e-2
-0.029, 1.199e-2
-0.028, 1.189e-2
-0.027, 1.179e-2
-0.026, 1.170e-2
-0.025, 1.160e-2
-0.024, 1.151e-2
-0.023, 1.141e-2
-0.022, 1.132e-2
-0.021, 1.122e-2
-0.020, 1.113e-2
-0.019, 1.103e-2
-0.018, 1.094e-2
-0.017, 1.085e-2
-0.016, 1.076e-2
-0.015, 1.066e-2
-0.014, 1.057e-2
-0.013, 1.048e-2
-0.012, 1.039e-2
-0.011, 1.030e-2
-0.010, 1.021e-2
-0.009, 1.012e-2
-0.008, 1.003e-2
-0.007, 9.944e-3
-0.006, 9.855e-3
-0.005, 9.768e-3
-0.004, 9.680e-3
-0.003, 9.593e-3
-0.002, 9.506e-3
-0.001, 9.419e-3
-0.000, 9.332e-3
0.001, 9.245e-3
0.002, 9.160e-3
0.003, 9.076e-3
0.004, 8.992e-3
0.005, 8.908e-3
0.006, 8.824e-3
0.007, 8.740e-3
0.008, 8.655e-3
0.009, 8.572e-3
0.010, 8.490e-3
0.011, 8.408e-3
0.012, 8.325e-3
0.013, 8.244e-3
0.014, 8.162e-3
0.015, 8.081e-3
0.016, 8.001e-3
0.017, 7.919e-3
0.018, 7.839e-3
0.019, 7.759e-3
0.020, 7.680e-3
0.021, 7.601e-3
0.022, 7.522e-3
0.023, 7.444e-3
0.024, 7.366e-3
0.025, 7.288e-3
0.026, 7.211e-3
0.027, 7.132e-3
0.028, 7.055e-3
0.029, 6.978e-3
0.030, 6.902e-3
0.031, 6.826e-3
0.032, 6.749e-3
0.033, 6.674e-3
0.034, 6.598e-3
0.035, 6.524e-3
0.036, 6.449e-3
0.037, 6.374e-3
0.038, 6.299e-3
0.039, 6.225e-3
0.040, 6.152e-3
0.041, 6.079e-3
0.042, 6.006e-3
0.043, 5.934e-3
0.044, 5.861e-3
0.045, 5.789e-3
0.046, 5.717e-3
0.047, 5.645e-3
0.048, 5.573e-3
0.049, 5.501e-3
0.050, 5.430e-3
0.051, 5.359e-3
0.052, 5.289e-3
0.053, 5.218e-3
0.054, 5.148e-3
0.055, 5.078e-3
0.056, 5.009e-3
0.057, 4.940e-3
0.058, 4.871e-3
0.059, 4.802e-3
0.060, 4.732e-3
0.061, 4.664e-3
0.062, 4.596e-3
0.063, 4.529e-3
0.064, 4.461e-3
0.065, 4.394e-3
0.066, 4.328e-3
0.067, 4.261e-3
0.068, 4.195e-3
0.069, 4.129e-3
0.070, 4.062e-3
0.071, 3.995e-3
0.072, 3.930e-3
0.073, 3.864e-3
0.074, 3.799e-3
0.075, 3.735e-3
0.076, 3.669e-3
0.077, 3.605e-3
0.078, 3.540e-3
0.079, 3.476e-3
0.080, 3.412e-3
0.081, 3.349e-3
0.082, 3.286e-3
0.083, 3.221e-3
0.084, 3.158e-3
0.085, 3.095e-3
0.086, 3.032e-3
0.087, 2.970e-3
0.088, 2.908e-3
0.089, 2.846e-3
0.090, 2.786e-3
0.091, 2.724e-3
0.092, 2.663e-3
0.093, 2.603e-3
0.094, 2.542e-3
0.095, 2.481e-3
0.096, 2.419e-3
0.097, 2.359e-3
0.098, 2.299e-3
0.099, 2.239e-3
0.100, 2.179e-3
0.101, 2.120e-3
0.102, 2.060e-3
0.103, 2.001e-3
0.104, 1.942e-3
0.105, 1.883e-3
0.106, 1.825e-3
0.107, 1.767e-3
0.108, 1.709e-3
0.109, 1.650e-3
0.110, 1.592e-3
0.111, 1.535e-3
0.112, 1.478e-3
0.113, 1.421e-3
0.114, 1.364e-3
0.115, 1.307e-3
0.116, 1.251e-3
0.117, 1.195e-3
0.118, 1.139e-3
0.119, 1.083e-3
0.120, 1.028e-3
0.121, 9.723e-4
0.122, 9.168e-4
0.123, 8.609e-4
0.124, 8.053e-4
0.125, 7.508e-4
0.126, 6.960e-4
0.127, 6.417e-4
0.128, 5.875e-4
0.129, 5.331e-4
0.130, 4.791e-4
0.131, 4.255e-4
0.132, 3.718e-4
0.133, 3.185e-4
0.134, 2.656e-4
0.135, 2.121e-4
0.136, 1.597e-4
0.137, 1.066e-4
0.138, 5.317e-5
0.139, 7.879e-7
0.140, -5.156e-5
0.141, -1.030e-4
0.142, -1.547e-4
0.143, -2.064e-4
0.144, -2.580e-4
0.145, -3.091e-4
0.146, -3.591e-4
0.147, -4.103e-4
0.148, -4.615e-4
0.149, -5.117e-4
0.150, -5.621e-4
0.151, -6.126e-4
0.152, -6.625e-4
0.153, -7.139e-4
0.154, -7.639e-4
0.155, -8.137e-4
0.156, -8.635e-4
0.157, -9.120e-4
0.158, -9.615e-4
0.159, -1.011e-3
0.160, -1.060e-3
0.161, -1.109e-3
0.162, -1.157e-3
0.163, -1.206e-3
0.164, -1.254e-3
0.165, -1.302e-3
0.166, -1.350e-3
0.167, -1.398e-3
0.168, -1.445e-3
0.169, -1.494e-3
0.170, -1.541e-3
0.171, -1.588e-3
0.172, -1.635e-3
0.173, -1.682e-3
0.174, -1.729e-3
0.175, -1.775e-3
0.176, -1.821e-3
0.177, -1.868e-3
0.178, -1.913e-3
0.179, -1.959e-3
0.180, -2.005e-3
0.181, -2.051e-3
0.182, -2.096e-3
0.183, -2.142e-3
0.184, -2.187e-3
0.185, -2.232e-3
0.186, -2.278e-3
0.187, -2.323e-3
0.188, -2.368e-3
0.189, -2.413e-3
0.190, -2.457e-3
0.191, -2.501e-3
0.192, -2.545e-3
0.193, -2.589e-3
0.194, -2.633e-3
0.195, -2.677e-3
0.196, -2.721e-3
0.197, -2.764e-3
0.198, -2.808e-3
0.199, -2.851e-3
0.200, -2.894e-3
0.201, -2.937e-3
0.202, -2.979e-3
0.203, -3.022e-3
0.204, -3.066e-3
0.205, -3.109e-3
0.206, -3.151e-3
0.207, -3.194e-3
0.208, -3.235e-3
0.209, -3.277e-3
0.210, -3.319e-3
0.211, -3.361e-3
0.212, -3.403e-3
0.213, -3.443e-3
0.214, -3.484e-3
0.215, -3.525e-3
0.216, -3.565e-3
0.217, -3.607e-3
0.218, -3.647e-3
0.219, -3.688e-3
0.220, -3.728e-3
0.221, -3.769e-3
0.222, -3.809e-3
0.223, -3.850e-3
0.224, -3.890e-3
0.225, -3.931e-3
0.226, -3.970e-3
0.227, -4.010e-3
0.228, -4.049e-3
0.229, -4.089e-3
0.230, -4.128e-3
0.231, -4.168e-3
0.232, -4.207e-3
0.233, -4.246e-3
0.234, -4.285e-3
0.235, -4.323e-3
0.236, -4.362e-3
0.237, -4.401e-3
0.238, -4.439e-3
0.239, -4.478e-3
0.240, -4.516e-3
0.241, -4.554e-3
0.242, -4.592e-3
0.243, -4.631e-3
0.244, -4.669e-3
0.245, -4.706e-3
0.246, -4.744e-3
0.247, -4.782e-3
0.248, -4.819e-3
0.249, -4.856e-3
0.250, -4.894e-3
0.251, -4.931e-3
0.252, -4.968e-3
0.253, -5.005e-3
0.254, -5.040e-3
0.255, -5.077e-3
0.256, -5.114e-3
0.257, -5.151e-3
0.258, -5.187e-3
0.259, -5.223e-3
0.260, -5.259e-3
0.261, -5.296e-3
0.262, -5.332e-3
0.263, -5.368e-3
0.264, -5.404e-3
0.265, -5.441e-3
0.266, -5.476e-3
0.267, -5.512e-3
0.268, -5.547e-3
0.269, -5.582e-3
0.270, -5.617e-3
0.271, -5.653e-3
0.272, -5.688e-3
0.273, -5.723e-3
0.274, -5.758e-3
0.275, -5.793e-3
0.276, -5.828e-3
0.277, -5.863e-3
0.278, -5.897e-3
0.279, -5.932e-3
0.280, -5.966e-3
0.281, -6.000e-3
0.282, -6.035e-3
0.283, -6.069e-3
0.284, -6.103e-3
0.285, -6.137e-3
0.286, -6.171e-3
0.287, -6.206e-3
0.288, -6.240e-3
0.289, -6.274e-3
0.290, -6.308e-3
0.291, -6.341e-3
0.292, -6.375e-3
0.293, -6.407e-3
0.294, -6.441e-3
0.295, -6.474e-3
0.296, -6.507e-3
0.297, -6.541e-3
0.298, -6.574e-3
0.299, -6.605e-3
0.300, -6.638e-3
0.301, -6.671e-3
0.302, -6.704e-3
0.303, -6.737e-3
0.304, -6.769e-3
0.305, -6.802e-3
0.306, -6.834e-3
0.307, -6.867e-3
0.308, -6.900e-3
0.309, -6.932e-3
0.310, -6.965e-3
0.311, -6.998e-3
0.312, -7.030e-3
0.313, -7.062e-3
0.314, -7.094e-3
0.315, -7.126e-3
0.316, -7.158e-3
0.317, -7.189e-3
0.318, -7.221e-3
0.319, -7.252e-3
0.320, -7.284e-3
0.321, -7.316e-3
0.322, -7.347e-3
0.323, -7.378e-3
0.324, -7.410e-3
0.325, -7.441e-3
0.326, -7.472e-3
0.327, -7.504e-3
0.328, -7.535e-3
0.329, -7.566e-3
0.330, -7.596e-3
0.331, -7.627e-3
0.332, -7.658e-3
0.333, -7.689e-3
0.334, -7.721e-3
0.335, -7.752e-3
0.336, -7.783e-3
0.337, -7.814e-3
0.338, -7.844e-3
0.339, -7.875e-3
0.340, -7.906e-3
0.341, -7.936e-3
0.342, -7.966e-3
0.343, -7.997e-3
0.344, -8.026e-3
0.345, -8.057e-3
0.346, -8.087e-3
0.347, -8.118e-3
0.348, -8.147e-3
0.349, -8.176e-3
0.350, -8.206e-3
0.351, -8.236e-3
0.352, -8.266e-3
0.353, -8.297e-3
0.354, -8.326e-3
0.355, -8.356e-3
0.356, -8.385e-3
0.357, -8.415e-3
0.358, -8.445e-3
0.359, -8.475e-3
0.360, -8.505e-3
0.361, -8.535e-3
0.362, -8.564e-3
0.363, -8.594e-3
0.364, -8.623e-3
0.365, -8.653e-3
0.366, -8.682e-3
0.367, -8.712e-3
0.368, -8.740e-3
0.369, -8.770e-3
0.370, -8.799e-3
0.371, -8.827e-3
0.372, -8.857e-3
0.373, -8.886e-3
0.374, -8.915e-3
0.375, -8.944e-3
0.376, -8.972e-3
0.377, -9.001e-3
0.378, -9.031e-3
0.379, -9.059e-3
0.380, -9.088e-3
0.381, -9.117e-3
0.382, -9.145e-3
0.383, -9.174e-3
0.384, -9.203e-3
0.385, -9.232e-3
0.386, -9.260e-3
0.387, -9.289e-3
0.388, -9.318e-3
0.389, -9.347e-3
0.390, -9.375e-3
0.391, -9.404e-3
0.392, -9.432e-3
0.393, -9.461e-3
0.394, -9.489e-3
0.395, -9.517e-3
0.396, -9.545e-3
0.397, -9.573e-3
0.398, -9.602e-3
0.399, -9.630e-3
0.400, -9.658e-3
0.401, -9.686e-3
0.402, -9.714e-3
0.403, -9.741e-3
0.404, -9.769e-3
0.405, -9.796e-3
0.406, -9.825e-3
0.407, -9.853e-3
0.408, -9.880e-3
0.409, -9.908e-3
0.410, -9.936e-3
0.411, -9.964e-3
0.412, -9.992e-3
0.413, -1.002e-2
0.414, -1.005e-2
0.415, -1.008e-2
0.416, -1.010e-2
0.417, -1.013e-2
0.418, -1.016e-2
0.419, -1.019e-2
0.420, -1.021e-2
0.421, -1.024e-2
0.422, -1.027e-2
0.423, -1.030e-2
0.424, -1.032e-2
0.425, -1.035e-2
0.426, -1.038e-2
0.427, -1.040e-2
0.428, -1.043e-2
0.429, -1.046e-2
0.430, -1.049e-2
0.431, -1.051e-2
0.432, -1.054e-2
0.433, -1.057e-2
0.434, -1.059e-2
0.435, -1.062e-2
0.436, -1.065e-2
0.437, -1.068e-2
0.438, -1.070e-2
0.439, -1.073e-2
0.440, -1.076e-2
0.441, -1.078e-2
0.442, -1.081e-2
0.443, -1.084e-2
0.444, -1.086e-2
0.445, -1.089e-2
0.446, -1.092e-2
0.447, -1.094e-2
0.448, -1.097e-2
0.449, -1.100e-2
0.450, -1.102e-2
0.451, -1.105e-2
0.452, -1.108e-2
0.453, -1.110e-2
0.454, -1.113e-2
0.455, -1.115e-2
0.456, -1.118e-2
0.457, -1.121e-2
0.458, -1.123e-2
0.459, -1.126e-2
0.460, -1.128e-2
0.461, -1.131e-2
0.462, -1.134e-2
0.463, -1.136e-2
0.464, -1.139e-2
0.465, -1.141e-2
0.466, -1.144e-2
0.467, -1.147e-2
0.468, -1.149e-2
0.469, -1.152e-2
0.470, -1.154e-2
0.471, -1.157e-2
0.472, -1.159e-2
0.473, -1.162e-2
0.474, -1.164e-2
0.475, -1.167e-2
0.476, -1.170e-2
0.477, -1.172e-2
0.478, -1.175e-2
0.479, -1.177e-2
0.480, -1.180e-2
0.481, -1.182e-2
0.482, -1.185e-2
0.483, -1.187e-2
0.484, -1.190e-2
0.485, -1.192e-2
0.486, -1.195e-2
0.487, -1.197e-2
0.488, -1.200e-2
0.489, -1.202e-2
0.490, -1.205e-2
0.491, -1.207e-2
0.492, -1.210e-2
0.493, -1.212e-2
0.494, -1.215e-2
0.495, -1.217e-2
0.496, -1.219e-2
0.497, -1.222e-2
0.498, -1.224e-2
0.499, -1.227e-2
0.500, -1.229e-2
0.501, -1.232e-2
0.502, -1.234e-2
0.503, -1.236e-2
0.504, -1.239e-2
0.505, -1.241e-2
0.506, -1.244e-2
0.507, -1.246e-2
0.508, -1.249e-2
0.509, -1.251e-2
0.510, -1.253e-2
0.511, -1.256e-2
0.512, -1.258e-2
0.513, -1.261e-2
0.514, -1.263e-2
0.515, -1.265e-2
0.516, -1.268e-2
0.517, -1.270e-2
0.518, -1.272e-2
0.519, -1.275e-2
0.520, -1.277e-2
0.521, -1.279e-2
0.522, -1.282e-2
0.523, -1.284e-2
0.524, -1.286e-2
0.525, -1.288e-2
0.526, -1.291e-2
0.527, -1.293e-2
0.528, -1.295e-2
0.529, -1.297e-2
0.530, -1.300e-2
0.531, -1.302e-2
0.532, -1.304e-2
0.533, -1.307e-2
0.534, -1.309e-2
0.535, -1.311e-2
0.536, -1.313e-2
0.537, -1.316e-2
0.538, -1.318e-2
0.539, -1.320e-2
0.540, -1.322e-2
0.541, -1.325e-2
0.542, -1.327e-2
0.543, -1.329e-2
0.544, -1.331e-2
0.545, -1.333e-2
0.546, -1.336e-2
0.547, -1.338e-2
0.548, -1.340e-2
0.549, -1.342e-2
0.550, -1.344e-2
0.551, -1.346e-2
0.552, -1.349e-2
0.553, -1.351e-2
0.554, -1.353e-2
0.555, -1.355e-2
0.556, -1.357e-2
0.557, -1.359e-2
0.558, -1.361e-2
0.559, -1.364e-2
0.560, -1.366e-2
0.561, -1.368e-2
0.562, -1.370e-2
0.563, -1.372e-2
0.564, -1.374e-2
0.565, -1.376e-2
0.566, -1.378e-2
0.567, -1.380e-2
0.568, -1.382e-2
0.569, -1.384e-2
0.570, -1.386e-2
0.571, -1.389e-2
0.572, -1.391e-2
0.573, -1.393e-2
0.574, -1.395e-2
0.575, -1.397e-2
0.576, -1.399e-2
0.577, -1.401e-2
0.578, -1.403e-2
0.579, -1.405e-2
0.580, -1.407e-2
0.581, -1.409e-2
0.582, -1.411e-2
0.583, -1.413e-2
0.584, -1.415e-2
0.585, -1.417e-2
0.586, -1.419e-2
0.587, -1.421e-2
0.588, -1.423e-2
0.589, -1.425e-2
0.590, -1.427e-2
0.591, -1.429e-2
0.592, -1.431e-2
0.593, -1.433e-2
0.594, -1.435e-2
0.595, -1.437e-2
0.596, -1.439e-2
0.597, -1.440e-2
0.598, -1.442e-2
0.599, -1.444e-2
0.600, -1.446e-2
0.601, -1.448e-2
0.602, -1.450e-2
0.603, -1.452e-2
0.604, -1.454e-2
0.605, -1.456e-2
0.606, -1.458e-2
0.607, -1.459e-2
0.608, -1.461e-2
0.609, -1.463e-2
0.610, -1.465e-2
0.611, -1.467e-2
0.612, -1.469e-2
0.613, -1.471e-2
0.614, -1.473e-2
0.615, -1.475e-2
0.616, -1.476e-2
0.617, -1.478e-2
0.618, -1.480e-2
0.619, -1.482e-2
0.620, -1.484e-2
0.621, -1.486e-2
0.622, -1.488e-2
0.623, -1.489e-2
0.624, -1.491e-2
0.625, -1.493e-2
0.626, -1.495e-2
0.627, -1.497e-2
0.628, -1.498e-2
0.629, -1.500e-2
0.630, -1.502e-2
0.631, -1.504e-2
0.632, -1.505e-2
0.633, -1.507e-2
0.634, -1.509e-2
0.635, -1.511e-2
0.636, -1.513e-2
0.637, -1.514e-2
0.638, -1.516e-2
0.639, -1.518e-2
0.640, -1.519e-2
0.641, -1.521e-2
0.642, -1.523e-2
0.643, -1.525e-2
0.644, -1.526e-2
0.645, -1.528e-2
0.646, -1.530e-2
0.647, -1.531e-2
0.648, -1.533e-2
0.649, -1.535e-2
0.650, -1.536e-2
0.651, -1.538e-2
0.652, -1.540e-2
0.653, -1.541e-2
0.654, -1.543e-2
0.655, -1.544e-2
0.656, -1.546e-2
0.657, -1.548e-2
0.658, -1.549e-2
0.659, -1.551e-2
0.660, -1.553e-2
0.661, -1.554e-2
0.662, -1.556e-2
0.663, -1.557e-2
0.664, -1.559e-2
0.665, -1.560e-2
0.666, -1.562e-2
0.667, -1.564e-2
0.668, -1.565e-2
0.669, -1.566e-2
0.670, -1.568e-2
0.671, -1.569e-2
0.672, -1.571e-2
0.673, -1.572e-2
0.674, -1.574e-2
0.675, -1.575e-2
0.676, -1.577e-2
0.677, -1.578e-2
0.678, -1.579e-2
0.679, -1.581e-2
0.680, -1.582e-2
0.681, -1.584e-2
0.682, -1.585e-2
0.683, -1.586e-2
0.684, -1.588e-2
0.685, -1.589e-2
0.686, -1.590e-2
0.687, -1.591e-2
0.688, -1.593e-2
0.689, -1.594e-2
0.690, -1.595e-2
0.691, -1.597e-2
0.692, -1.598e-2
0.693, -1.599e-2
0.694, -1.600e-2
0.695, -1.601e-2
0.696, -1.603e-2
0.697, -1.604e-2
0.698, -1.605e-2
0.699, -1.606e-2
0.700, -1.607e-2
0.701, -1.609e-2
0.702, -1.610e-2
0.703, -1.611e-2
0.704, -1.612e-2
0.705, -1.613e-2
0.706, -1.614e-2
0.707, -1.616e-2
0.708, -1.617e-2
0.709, -1.618e-2
0.710, -1.619e-2
0.711, -1.620e-2
0.712, -1.621e-2
0.713, -1.622e-2
0.714, -1.623e-2
0.715, -1.624e-2
0.716, -1.625e-2
0.717, -1.626e-2
0.718, -1.627e-2
0.719, -1.628e-2
0.720, -1.629e-2
0.721, -1.630e-2
0.722, -1.631e-2
0.723, -1.632e-2
0.724, -1.633e-2
0.725, -1.634e-2
0.726, -1.635e-2
0.727, -1.636e-2
0.728, -1.637e-2
0.729, -1.638e-2
0.730, -1.639e-2
0.731, -1.640e-2
0.732, -1.641e-2
0.733, -1.641e-2
0.734, -1.642e-2
0.735, -1.643e-2
0.736, -1.644e-2
0.737, -1.645e-2
0.738, -1.646e-2
0.739, -1.646e-2
0.740, -1.647e-2
0.741, -1.648e-2
0.742, -1.649e-2
0.743, -1.650e-2
0.744, -1.650e-2
0.745, -1.651e-2
0.746, -1.652e-2
0.747, -1.653e-2
0.748, -1.653e-2
0.749, -1.654e-2
0.750, -1.655e-2
0.751, -1.656e-2
0.752, -1.656e-2
0.753, -1.657e-2
0.754, -1.658e-2
0.755, -1.658e-2
0.756, -1.659e-2
0.757, -1.660e-2
0.758, -1.660e-2
0.759, -1.661e-2
0.760, -1.661e-2
0.761, -1.662e-2
0.762, -1.663e-2
0.763, -1.663e-2
0.764, -1.664e-2
0.765, -1.665e-2
0.766, -1.665e-2
0.767, -1.666e-2
0.768, -1.666e-2
0.769, -1.667e-2
0.770, -1.667e-2
0.771, -1.668e-2
0.772, -1.669e-2
0.773, -1.669e-2
0.774, -1.670e-2
0.775, -1.670e-2
0.776, -1.671e-2
0.777, -1.671e-2
0.778, -1.671e-2
0.779, -1.672e-2
0.780, -1.672e-2
0.781, -1.673e-2
0.782, -1.673e-2
0.783, -1.674e-2
0.784, -1.674e-2
0.785, -1.675e-2
0.786, -1.675e-2
0.787, -1.676e-2
0.788, -1.676e-2
0.789, -1.677e-2
0.790, -1.677e-2
0.791, -1.678e-2
0.792, -1.678e-2
0.793, -1.679e-2
0.794, -1.679e-2
0.795, -1.680e-2
0.796, -1.680e-2
0.797, -1.680e-2
0.798, -1.681e-2
0.799, -1.681e-2
0.800, -1.682e-2
0.801, -1.682e-2
0.802, -1.682e-2
0.803, -1.683e-2
0.804, -1.683e-2
0.805, -1.683e-2
0.806, -1.684e-2
0.807, -1.684e-2
0.808, -1.685e-2
0.809, -1.685e-2
0.810, -1.685e-2
0.811, -1.686e-2
0.812, -1.686e-2
0.813, -1.686e-2
0.814, -1.687e-2
0.815, -1.687e-2
0.816, -1.687e-2
0.817, -1.688e-2
0.818, -1.688e-2
0.819, -1.688e-2
0.820, -1.689e-2
0.821, -1.689e-2
0.822, -1.689e-2
0.823, -1.690e-2
0.824, -1.690e-2
0.825, -1.690e-2
0.826, -1.691e-2
0.827, -1.691e-2
0.828, -1.691e-2
0.829, -1.691e-2
0.830, -1.692e-2
0.831, -1.692e-2
0.832, -1.692e-2
0.833, -1.692e-2
0.834, -1.693e-2
0.835, -1.693e-2
0.836, -1.693e-2
0.837, -1.693e-2
0.838, -1.694e-2
0.839, -1.694e-2
0.840, -1.694e-2
0.841, -1.694e-2
0.842, -1.695e-2
0.843, -1.695e-2
0.844, -1.695e-2
0.845, -1.695e-2
0.846, -1.695e-2
0.847, -1.696e-2
0.848, -1.696e-2
0.849, -1.696e-2
0.850, -1.696e-2
0.851, -1.696e-2
0.852, -1.697e-2
0.853, -1.697e-2
0.854, -1.697e-2
0.855, -1.697e-2
0.856, -1.697e-2
0.857, -1.698e-2
0.858, -1.698e-2
0.859, -1.698e-2
0.860, -1.698e-2
0.861, -1.698e-2
0.862, -1.698e-2
0.863, -1.699e-2
0.864, -1.699e-2
0.865, -1.699e-2
0.866, -1.699e-2
0.867, -1.699e-2
0.868, -1.699e-2
0.869, -1.699e-2
0.870, -1.700e-2
0.871, -1.700e-2
0.872, -1.700e-2
0.873, -1.700e-2
0.874, -1.700e-2
0.875, -1.700e-2
0.876, -1.701e-2
0.877, -1.701e-2
0.878, -1.701e-2
0.879, -1.701e-2
0.880, -1.701e-2
0.881, -1.701e-2
0.882, -1.701e-2
0.883, -1.702e-2
0.884, -1.702e-2
0.885, -1.702e-2
0.886, -1.702e-2
0.887, -1.702e-2
0.888, -1.702e-2
0.889, -1.702e-2
0.890, -1.703e-2
0.891, -1.703e-2
0.892, -1.703e-2
0.893, -1.703e-2
0.894, -1.703e-2
0.895, -1.703e-2
0.896, -1.703e-2
0.897, -1.703e-2
0.898, -1.704e-2
0.899, -1.704e-2
0.900, -1.704e-2
0.901, -1.704e-2
0.902, -1.704e-2
0.903, -1.704e-2
0.904, -1.704e-2
0.905, -1.705e-2
0.906, -1.705e-2
0.907, -1.705e-2
0.908, -1.705e-2
0.909, -1.705e-2
0.910, -1.705e-2
0.911, -1.705e-2
0.912, -1.705e-2
0.913, -1.705e-2
0.914, -1.706e-2
0.915, -1.706e-2
0.916, -1.706e-2
0.917, -1.706e-2
0.918, -1.706e-2
0.919, -1.706e-2
0.920, -1.707e-2
0.921, -1.707e-2
0.922, -1.707e-2
0.923, -1.707e-2
0.924, -1.707e-2
0.925, -1.707e-2
0.926, -1.708e-2
0.927, -1.708e-2
0.928, -1.708e-2
0.929, -1.708e-2
0.930, -1.708e-2
0.931, -1.708e-2
0.932, -1.709e-2
0.933, -1.709e-2
0.934, -1.709e-2
0.935, -1.709e-2
0.936, -1.709e-2
0.937, -1.710e-2
0.938, -1.710e-2
0.939, -1.710e-2
0.940, -1.710e-2
0.941, -1.710e-2
0.942, -1.711e-2
0.943, -1.711e-2
0.944, -1.711e-2
0.945, -1.711e-2
0.946, -1.712e-2
0.947, -1.712e-2
0.948, -1.712e-2
0.949, -1.712e-2
0.950, -1.713e-2
0.951, -1.713e-2
0.952, -1.713e-2
0.953, -1.714e-2
0.954, -1.714e-2
0.955, -1.714e-2
0.956, -1.714e-2
0.957, -1.715e-2
0.958, -1.715e-2
0.959, -1.715e-2
0.960, -1.716e-2
0.961, -1.716e-2
0.962, -1.717e-2
0.963, -1.717e-2
0.964, -1.718e-2
0.965, -1.718e-2
0.966, -1.718e-2
0.967, -1.719e-2
0.968, -1.719e-2
0.969, -1.719e-2
0.970, -1.720e-2
0.971, -1.720e-2
0.972, -1.721e-2
0.973, -1.721e-2
0.974, -1.721e-2
0.975, -1.722e-2
0.976, -1.722e-2
0.977, -1.723e-2
0.978, -1.723e-2
0.979, -1.724e-2
0.980, -1.724e-2
0.981, -1.725e-2
0.982, -1.725e-2
0.983, -1.726e-2
0.984, -1.726e-2
0.985, -1.727e-2
0.986, -1.727e-2
0.987, -1.728e-2
0.988, -1.728e-2
0.989, -1.729e-2
0.990, -1.729e-2
0.991, -1.730e-2
0.992, -1.731e-2
0.993, -1.731e-2
0.994, -1.732e-2
0.995, -1.732e-2
0.996, -1.733e-2
0.997, -1.734e-2
0.998, -1.734e-2
0.999, -1.735e-2
1.000, -1.736e-2
1.001, -1.737e-2
1.002, -1.737e-2
1.003, -1.738e-2
1.004, -1.739e-2
1.005, -1.739e-2
1.006, -1.740e-2
1.007, -1.741e-2
1.008, -1.742e-2
1.009, -1.742e-2
1.010, -1.743e-2
1.011, -1.744e-2
1.012, -1.745e-2
1.013, -1.746e-2
1.014, -1.746e-2
1.015, -1.747e-2
1.016, -1.748e-2
1.017, -1.749e-2
1.018, -1.750e-2
1.019, -1.751e-2
1.020, -1.752e-2
1.021, -1.752e-2
1.022, -1.753e-2
1.023, -1.754e-2
1.024, -1.755e-2
1.025, -1.756e-2
1.026, -1.757e-2
1.027, -1.758e-2
1.028, -1.759e-2
1.029, -1.760e-2
1.030, -1.761e-2
1.031, -1.762e-2
1.032, -1.763e-2
1.033, -1.764e-2
1.034, -1.765e-2
1.035, -1.766e-2
1.036, -1.767e-2
1.037, -1.768e-2
1.038, -1.770e-2
1.039, -1.771e-2
1.040, -1.772e-2
1.041, -1.773e-2
1.042, -1.774e-2
1.043, -1.775e-2
1.044, -1.777e-2
1.045, -1.778e-2
1.046, -1.779e-2
1.047, -1.780e-2
1.048, -1.781e-2
1.049, -1.783e-2
1.050, -1.784e-2
1.051, -1.785e-2
1.052, -1.786e-2
1.053, -1.788e-2
1.054, -1.789e-2
1.055, -1.790e-2
1.056, -1.792e-2
1.057, -1.793e-2
1.058, -1.794e-2
1.059, -1.796e-2
1.060, -1.797e-2
1.061, -1.799e-2
1.062, -1.800e-2
1.063, -1.801e-2
1.064, -1.803e-2
1.065, -1.804e-2
1.066, -1.806e-2
1.067, -1.807e-2
1.068, -1.809e-2
1.069, -1.810e-2
1.070, -1.812e-2
1.071, -1.813e-2
1.072, -1.815e-2
1.073, -1.816e-2
1.074, -1.818e-2
1.075, -1.819e-2
1.076, -1.821e-2
1.077, -1.822e-2
1.078, -1.824e-2
1.079, -1.825e-2
1.080, -1.827e-2
1.081, -1.829e-2
1.082, -1.830e-2
1.083, -1.832e-2
1.084, -1.834e-2
1.085, -1.835e-2
1.086, -1.837e-2
1.087, -1.839e-2
1.088, -1.840e-2
1.089, -1.842e-2
1.090, -1.844e-2
1.091, -1.845e-2
1.092, -1.847e-2
1.093, -1.849e-2
1.094, -1.851e-2
1.095, -1.852e-2
1.096, -1.854e-2
1.097, -1.856e-2
1.098, -1.858e-2
1.099, -1.860e-2
1.100, -1.856e-2
1.099, -1.840e-2
1.098, -1.824e-2
1.097, -1.808e-2
1.096, -1.792e-2
1.095, -1.776e-2
1.094, -1.760e-2
1.093, -1.744e-2
1.092, -1.729e-2
1.091, -1.714e-2
1.090, -1.698e-2
1.089, -1.683e-2
1.088, -1.668e-2
1.087, -1.653e-2
1.086, -1.638e-2
1.085, -1.623e-2
1.084, -1.608e-2
1.083, -1.594e-2
1.082, -1.579e-2
1.081, -1.565e-2
1.080, -1.550e-2
1.079, -1.536e-2
1.078, -1.522e-2
1.077, -1.507e-2
1.076, -1.493e-2
1.075, -1.479e-2
1.074, -1.465e-2
1.073, -1.451e-2
1.072, -1.437e-2
1.071, -1.424e-2
1.070, -1.410e-2
1.069, -1.396e-2
1.068, -1.383e-2
1.067, -1.369e-2
1.066, -1.356e-2
1.065, -1.342e-2
1.064, -1.329e-2
1.063, -1.316e-2
1.062, -1.303e-2
1.061, -1.290e-2
1.060, -1.277e-2
1.059, -1.264e-2
1.058, -1.251e-2
1.057, -1.238e-2
1.056, -1.225e-2
1.055, -1.212e-2
1.054, -1.199e-2
1.053, -1.187e-2
1.052, -1.174e-2
1.051, -1.161e-2
1.050, -1.149e-2
1.049, -1.137e-2
1.048, -1.124e-2
1.047, -1.112e-2
1.046, -1.100e-2
1.045, -1.087e-2
1.044, -1.075e-2
1.043, -1.063e-2
1.042, -1.051e-2
1.041, -1.039e-2
1.040, -1.027e-2
1.039, -1.015e-2
1.038, -1.003e-2
1.037, -9.913e-3
1.036, -9.796e-3
1.035, -9.680e-3
1.034, -9.563e-3
1.033, -9.447e-3
1.032, -9.331e-3
1.031, -9.215e-3
1.030, -9.100e-3
1.029, -8.986e-3
1.028, -8.872e-3
1.027, -8.759e-3
1.026, -8.646e-3
1.025, -8.533e-3
1.024, -8.420e-3
1.023, -8.309e-3
1.022, -8.198e-3
1.021, -8.088e-3
1.020, -7.978e-3
1.019, -7.868e-3
1.018, -7.758e-3
1.017, -7.649e-3
1.016, -7.541e-3
1.015, -7.432e-3
1.014, -7.325e-3
1.013, -7.218e-3
1.012, -7.112e-3
1.011, -7.006e-3
1.010, -6.899e-3
1.009, -6.793e-3
1.008, -6.689e-3
1.007, -6.585e-3
1.006, -6.481e-3
1.005, -6.378e-3
1.004, -6.274e-3
1.003, -6.171e-3
1.002, -6.068e-3
1.001, -5.966e-3
1.000, -5.864e-3
0.999, -5.763e-3
0.998, -5.663e-3
0.997, -5.562e-3
0.996, -5.462e-3
0.995, -5.362e-3
0.994, -5.262e-3
0.993, -5.164e-3
0.992, -5.065e-3
0.991, -4.967e-3
0.990, -4.870e-3
0.989, -4.773e-3
0.988, -4.676e-3
0.987, -4.578e-3
0.986, -4.482e-3
0.985, -4.386e-3
0.984, -4.291e-3
0.983, -4.196e-3
0.982, -4.101e-3
0.981, -4.007e-3
0.980, -3.913e-3
0.979, -3.819e-3
0.978, -3.725e-3
0.977, -3.632e-3
0.976, -3.540e-3
0.975, -3.449e-3
0.974, -3.358e-3
0.973, -3.266e-3
0.972, -3.175e-3
0.971, -3.085e-3
0.970, -2.993e-3
0.969, -2.903e-3
0.968, -2.814e-3
0.967, -2.725e-3
0.966, -2.636e-3
0.965, -2.547e-3
0.964, -2.459e-3
0.963, -2.372e-3
0.962, -2.284e-3
0.961, -2.196e-3
0.960, -2.109e-3
0.959, -2.023e-3
0.958, -1.937e-3
0.957, -1.852e-3
0.956, -1.767e-3
0.955, -1.682e-3
0.954, -1.597e-3
0.953, -1.513e-3
0.952, -1.428e-3
0.951, -1.344e-3
0.950, -1.262e-3
0.949, -1.178e-3
0.948, -1.096e-3
0.947, -1.013e-3
0.946, -9.311e-4
0.945, -8.497e-4
0.944, -7.687e-4
0.943, -6.866e-4
0.942, -6.060e-4
0.941, -5.252e-4
0.940, -4.452e-4
0.939, -3.657e-4
0.938, -2.877e-4
0.937, -2.087e-4
0.936, -1.301e-4
0.935, -5.199e-5
0.934, 2.599e-5
0.933, 1.044e-4
0.932, 1.824e-4
0.931, 2.590e-4
0.930, 3.358e-4
0.929, 4.121e-4
0.928, 4.882e-4
0.927, 5.646e-4
0.926, 6.397e-4
0.925, 7.146e-4
0.924, 7.898e-4
0.923, 8.645e-4
0.922, 9.401e-4
0.921, 1.015e-3
0.920, 1.088e-3
0.919, 1.162e-3
0.918, 1.234e-3
0.917, 1.306e-3
0.916, 1.378e-3
0.915, 1.451e-3
0.914, 1.522e-3
0.913, 1.594e-3
0.912, 1.665e-3
0.911, 1.737e-3
0.910, 1.807e-3
0.909, 1.877e-3
0.908, 1.947e-3
0.907, 2.016e-3
0.906, 2.085e-3
0.905, 2.154e-3
0.904, 2.222e-3
0.903, 2.291e-3
0.902, 2.359e-3
0.901, 2.427e-3
0.900, 2.496e-3
0.899, 2.563e-3
0.898, 2.630e-3
0.897, 2.696e-3
0.896, 2.763e-3
0.895, 2.828e-3
0.894, 2.893e-3
0.893, 2.959e-3
0.892, 3.024e-3
0.891, 3.088e-3
0.890, 3.153e-3
0.889, 3.218e-3
0.888, 3.283e-3
0.887, 3.347e-3
0.886, 3.409e-3
0.885, 3.472e-3
0.884, 3.535e-3
0.883, 3.598e-3
0.882, 3.660e-3
0.881, 3.722e-3
0.880, 3.784e-3
0.879, 3.845e-3
0.878, 3.906e-3
0.877, 3.967e-3
0.876, 4.028e-3
0.875, 4.089e-3
0.874, 4.148e-3
0.873, 4.208e-3
0.872, 4.267e-3
0.871, 4.327e-3
0.870, 4.385e-3
0.869, 4.443e-3
0.868, 4.501e-3
0.867, 4.559e-3
0.866, 4.616e-3
0.865, 4.674e-3
0.864, 4.731e-3
0.863, 4.788e-3
0.862, 4.845e-3
0.861, 4.902e-3
0.860, 4.958e-3
0.859, 5.013e-3
0.858, 5.068e-3
0.857, 5.124e-3
0.856, 5.178e-3
0.855, 5.233e-3
0.854, 5.287e-3
0.853, 5.341e-3
0.852, 5.395e-3
0.851, 5.448e-3
0.850, 5.502e-3
0.849, 5.554e-3
0.848, 5.608e-3
0.847, 5.660e-3
0.846, 5.712e-3
0.845, 5.765e-3
0.844, 5.816e-3
0.843, 5.867e-3
0.842, 5.918e-3
0.841, 5.968e-3
0.840, 6.018e-3
0.839, 6.069e-3
0.838, 6.118e-3
0.837, 6.168e-3
0.836, 6.217e-3
0.835, 6.266e-3
0.834, 6.315e-3
0.833, 6.364e-3
0.832, 6.413e-3
0.831, 6.462e-3
0.830, 6.509e-3
0.829, 6.556e-3
0.828, 6.604e-3
0.827, 6.650e-3
0.826, 6.697e-3
0.825, 6.744e-3
0.824, 6.790e-3
0.823, 6.836e-3
0.822, 6.882e-3
0.821, 6.927e-3
0.820, 6.972e-3
0.819, 7.019e-3
0.818, 7.064e-3
0.817, 7.109e-3
0.816, 7.153e-3
0.815, 7.198e-3
0.814, 7.241e-3
0.813, 7.285e-3
0.812, 7.328e-3
0.811, 7.370e-3
0.810, 7.413e-3
0.809, 7.455e-3
0.808, 7.497e-3
0.807, 7.538e-3
0.806, 7.579e-3
0.805, 7.620e-3
0.804, 7.661e-3
0.803, 7.702e-3
0.802, 7.742e-3
0.801, 7.783e-3
0.800, 7.823e-3
0.799, 7.863e-3
0.798, 7.902e-3
0.797, 7.942e-3
0.796, 7.982e-3
0.795, 8.021e-3
0.794, 8.059e-3
0.793, 8.098e-3
0.792, 8.135e-3
0.791, 8.173e-3
0.790, 8.210e-3
0.789, 8.248e-3
0.788, 8.285e-3
0.787, 8.321e-3
0.786, 8.358e-3
0.785, 8.395e-3
0.784, 8.431e-3
0.783, 8.467e-3
0.782, 8.502e-3
0.781, 8.537e-3
0.780, 8.572e-3
0.779, 8.606e-3
0.778, 8.641e-3
0.777, 8.675e-3
0.776, 8.710e-3
0.775, 8.744e-3
0.774, 8.778e-3
0.773, 8.812e-3
0.772, 8.845e-3
0.771, 8.878e-3
0.770, 8.911e-3
0.769, 8.943e-3
0.768, 8.975e-3
0.767, 9.008e-3
0.766, 9.039e-3
0.765, 9.071e-3
0.764, 9.101e-3
0.763, 9.131e-3
0.762, 9.163e-3
0.761, 9.193e-3
0.760, 9.224e-3
0.759, 9.254e-3
0.758, 9.284e-3
0.757, 9.313e-3
0.756, 9.343e-3
0.755, 9.372e-3
0.754, 9.401e-3
0.753, 9.430e-3
0.752, 9.459e-3
0.751, 9.487e-3
0.750, 9.516e-3
0.749, 9.545e-3
0.748, 9.573e-3
0.747, 9.600e-3
0.746, 9.627e-3
0.745, 9.654e-3
0.744, 9.681e-3
0.743, 9.708e-3
0.742, 9.734e-3
0.741, 9.761e-3
0.740, 9.787e-3
0.739, 9.813e-3
0.738, 9.839e-3
0.737, 9.864e-3
0.736, 9.889e-3
0.735, 9.914e-3
0.734, 9.939e-3
0.733, 9.964e-3
0.732, 9.989e-3
0.731, 1.001e-2
0.730, 1.004e-2
0.729, 1.006e-2
0.728, 1.008e-2
0.727, 1.011e-2
0.726, 1.013e-2
0.725, 1.015e-2
0.724, 1.018e-2
0.723, 1.020e-2
0.722, 1.022e-2
0.721, 1.024e-2
0.720, 1.027e-2
0.719, 1.029e-2
0.718, 1.031e-2
0.717, 1.033e-2
0.716, 1.036e-2
0.715, 1.038e-2
0.714, 1.040e-2
0.713, 1.042e-2
0.712, 1.044e-2
0.711, 1.046e-2
0.710, 1.048e-2
0.709, 1.050e-2
0.708, 1.052e-2
0.707, 1.054e-2
0.706, 1.056e-2
0.705, 1.058e-2
0.704, 1.060e-2
0.703, 1.062e-2
0.702, 1.064e-2
0.701, 1.065e-2
0.700, 1.067e-2
0.699, 1.069e-2
0.698, 1.071e-2
0.697, 1.073e-2
0.696, 1.074e-2
0.695, 1.076e-2
0.694, 1.078e-2
0.693, 1.080e-2
0.692, 1.082e-2
0.691, 1.083e-2
0.690, 1.085e-2
0.689, 1.087e-2
0.688, 1.088e-2
0.687, 1.090e-2
0.686, 1.092e-2
0.685, 1.093e-2
0.684, 1.095e-2
0.683, 1.096e-2
0.682, 1.098e-2
0.681, 1.100e-2
0.680, 1.101e-2
0.679, 1.103e-2
0.678, 1.104e-2
0.677, 1.106e-2
0.676, 1.107e-2
0.675, 1.109e-2
0.674, 1.110e-2
0.673, 1.112e-2
0.672, 1.113e-2
0.671, 1.115e-2
0.670, 1.116e-2
0.669, 1.118e-2
0.668, 1.119e-2
0.667, 1.120e-2
0.666, 1.122e-2
0.665, 1.123e-2
0.664, 1.124e-2
0.663, 1.126e-2
0.662, 1.127e-2
0.661, 1.128e-2
0.660, 1.130e-2
0.659, 1.131e-2
0.658, 1.132e-2
0.657, 1.134e-2
0.656, 1.135e-2
0.655, 1.136e-2
0.654, 1.137e-2
0.653, 1.138e-2
0.652, 1.140e-2
0.651, 1.141e-2
0.650, 1.142e-2
0.649, 1.143e-2
0.648, 1.144e-2
0.647, 1.146e-2
0.646, 1.147e-2
0.645, 1.148e-2
0.644, 1.149e-2
0.643, 1.150e-2
0.642, 1.151e-2
0.641, 1.152e-2
0.640, 1.154e-2
0.639, 1.155e-2
0.638, 1.156e-2
0.637, 1.157e-2
0.636, 1.158e-2
0.635, 1.159e-2
0.634, 1.160e-2
0.633, 1.161e-2
0.632, 1.162e-2
0.631, 1.163e-2
0.630, 1.164e-2
0.629, 1.165e-2
0.628, 1.166e-2
0.627, 1.167e-2
0.626, 1.168e-2
0.625, 1.169e-2
0.624, 1.170e-2
0.623, 1.171e-2
0.622, 1.172e-2
0.621, 1.173e-2
0.620, 1.174e-2
0.619, 1.175e-2
0.618, 1.176e-2
0.617, 1.177e-2
0.616, 1.178e-2
0.615, 1.179e-2
0.614, 1.179e-2
0.613, 1.180e-2
0.612, 1.181e-2
0.611, 1.182e-2
0.610, 1.183e-2
0.609, 1.184e-2
0.608, 1.185e-2
0.607, 1.186e-2
0.606, 1.187e-2
0.605, 1.188e-2
0.604, 1.188e-2
0.603, 1.189e-2
0.602, 1.190e-2
0.601, 1.191e-2
0.600, 1.192e-2
0.599, 1.193e-2
0.598, 1.193e-2
0.597, 1.194e-2
0.596, 1.195e-2
0.595, 1.196e-2
0.594, 1.197e-2
0.593, 1.198e-2
0.592, 1.198e-2
0.591, 1.199e-2
0.590, 1.200e-2
0.589, 1.201e-2
0.588, 1.202e-2
0.587, 1.203e-2
0.586, 1.203e-2
0.585, 1.204e-2
0.584, 1.205e-2
0.583, 1.206e-2
0.582, 1.206e-2
0.581, 1.207e-2
0.580, 1.208e-2
0.579, 1.209e-2
0.578, 1.210e-2
0.577, 1.210e-2
0.576, 1.211e-2
0.575, 1.212e-2
0.574, 1.213e-2
0.573, 1.213e-2
0.572, 1.214e-2
0.571, 1.215e-2
0.570, 1.216e-2
0.569, 1.216e-2
0.568, 1.217e-2
0.567, 1.218e-2
0.566, 1.219e-2
0.565, 1.219e-2
0.564, 1.220e-2
0.563, 1.221e-2
0.562, 1.222e-2
0.561, 1.222e-2
0.560, 1.223e-2
0.559, 1.224e-2
0.558, 1.225e-2
0.557, 1.225e-2
0.556, 1.226e-2
0.555, 1.227e-2
0.554, 1.228e-2
0.553, 1.228e-2
0.552, 1.229e-2
0.551, 1.230e-2
0.550, 1.231e-2
0.549, 1.231e-2
0.548, 1.232e-2
0.547, 1.233e-2
0.546, 1.234e-2
0.545, 1.234e-2
0.544, 1.235e-2
0.543, 1.236e-2
0.542, 1.237e-2
0.541, 1.237e-2
0.540, 1.238e-2
0.539, 1.239e-2
0.538, 1.240e-2
0.537, 1.240e-2
0.536, 1.241e-2
0.535, 1.242e-2
0.534, 1.243e-2
0.533, 1.243e-2
0.532, 1.244e-2
0.531, 1.245e-2
0.530, 1.246e-2
0.529, 1.246e-2
0.528, 1.247e-2
0.527, 1.248e-2
0.526, 1.248e-2
0.525, 1.249e-2
0.524, 1.250e-2
0.523, 1.251e-2
0.522, 1.251e-2
0.521, 1.252e-2
0.520, 1.253e-2
0.519, 1.254e-2
0.518, 1.255e-2
0.517, 1.255e-2
0.516, 1.256e-2
0.515, 1.257e-2
0.514, 1.258e-2
0.513, 1.258e-2
0.512, 1.259e-2
0.511, 1.260e-2
0.510, 1.261e-2
0.509, 1.261e-2
0.508, 1.262e-2
0.507, 1.263e-2
0.506, 1.264e-2
0.505, 1.265e-2
0.504, 1.265e-2
0.503, 1.266e-2
0.502, 1.267e-2
0.501, 1.268e-2
0.500, 1.268e-2
0.499, 1.269e-2
0.498, 1.270e-2
0.497, 1.271e-2
0.496, 1.272e-2
0.495, 1.272e-2
0.494, 1.273e-2
0.493, 1.274e-2
0.492, 1.275e-2
0.491, 1.275e-2
0.490, 1.276e-2
0.489, 1.277e-2
0.488, 1.278e-2
0.487, 1.279e-2
0.486, 1.279e-2
0.485, 1.280e-2
0.484, 1.281e-2
0.483, 1.282e-2
0.482, 1.282e-2
0.481, 1.283e-2
0.480, 1.284e-2
0.479, 1.285e-2
0.478, 1.286e-2
0.477, 1.286e-2
0.476, 1.287e-2
0.475, 1.288e-2
0.474, 1.289e-2
0.473, 1.290e-2
0.472, 1.290e-2
0.471, 1.291e-2
0.470, 1.292e-2
0.469, 1.293e-2
0.468, 1.294e-2
0.467, 1.295e-2
0.466, 1.295e-2
0.465, 1.296e-2
0.464, 1.297e-2
0.463, 1.298e-2
0.462, 1.299e-2
0.461, 1.300e-2
0.460, 1.300e-2
0.459, 1.301e-2
0.458, 1.302e-2
0.457, 1.303e-2
0.456, 1.304e-2
0.455, 1.305e-2
0.454, 1.305e-2
0.453, 1.306e-2
0.452, 1.307e-2
0.451, 1.308e-2
0.450, 1.309e-2
0.449, 1.310e-2
0.448, 1.310e-2
0.447, 1.311e-2
0.446, 1.312e-2
0.445, 1.313e-2
0.444, 1.314e-2
0.443, 1.315e-2
0.442, 1.316e-2
0.441, 1.317e-2
0.440, 1.317e-2
0.439, 1.318e-2
0.438, 1.319e-2
0.437, 1.320e-2
0.436, 1.321e-2
0.435, 1.322e-2
0.434, 1.323e-2
0.433, 1.323e-2
0.432, 1.324e-2
0.431, 1.325e-2
0.430, 1.326e-2
0.429, 1.327e-2
0.428, 1.328e-2
0.427, 1.329e-2
0.426, 1.330e-2
0.425, 1.331e-2
0.424, 1.331e-2
0.423, 1.332e-2
0.422, 1.333e-2
0.421, 1.334e-2
0.420, 1.335e-2
0.419, 1.336e-2
0.418, 1.337e-2
0.417, 1.338e-2
0.416, 1.339e-2
0.415, 1.340e-2
0.414, 1.340e-2
0.413, 1.341e-2
0.412, 1.342e-2
0.411, 1.343e-2
0.410, 1.344e-2
0.409, 1.345e-2
0.408, 1.346e-2
0.407, 1.347e-2
0.406, 1.348e-2
0.405, 1.349e-2
0.404, 1.350e-2
0.403, 1.351e-2
0.402, 1.352e-2
0.401, 1.353e-2
0.400, 1.354e-2
0.399, 1.355e-2
0.398, 1.355e-2
0.397, 1.356e-2
0.396, 1.357e-2
0.395, 1.358e-2
0.394, 1.359e-2
0.393, 1.360e-2
0.392, 1.361e-2
0.391, 1.362e-2
0.390, 1.363e-2
0.389, 1.364e-2
0.388, 1.365e-2
0.387, 1.366e-2
0.386, 1.367e-2
0.385, 1.368e-2
0.384, 1.369e-2
0.383, 1.370e-2
0.382, 1.371e-2
0.381, 1.372e-2
0.380, 1.373e-2
0.379, 1.374e-2
0.378, 1.375e-2
0.377, 1.376e-2
0.376, 1.377e-2
0.375, 1.378e-2
0.374, 1.379e-2
0.373, 1.379e-2
0.372, 1.380e-2
0.371, 1.381e-2
0.370, 1.382e-2
0.369, 1.383e-2
0.368, 1.384e-2
0.367, 1.385e-2
0.366, 1.386e-2
0.365, 1.387e-2
0.364, 1.388e-2
0.363, 1.389e-2
0.362, 1.390e-2
0.361, 1.391e-2
0.360, 1.392e-2
0.359, 1.393e-2
0.358, 1.394e-2
0.357, 1.395e-2
0.356, 1.397e-2
0.355, 1.398e-2
0.354, 1.399e-2
0.353, 1.400e-2
0.352, 1.401e-2
0.351, 1.402e-2
0.350, 1.403e-2
0.349, 1.404e-2
0.348, 1.405e-2
0.347, 1.406e-2
0.346, 1.407e-2
0.345, 1.408e-2
0.344, 1.409e-2
0.343, 1.410e-2
0.342, 1.411e-2
0.341, 1.412e-2
0.340, 1.413e-2
0.339, 1.414e-2
0.338, 1.415e-2
0.337, 1.416e-2
0.336, 1.417e-2
0.335, 1.419e-2
0.334, 1.420e-2
0.333, 1.421e-2
0.332, 1.422e-2
0.331, 1.423e-2
0.330, 1.424e-2
0.329, 1.425e-2
0.328, 1.426e-2
0.327, 1.427e-2
0.326, 1.428e-2
0.325, 1.430e-2
0.324, 1.431e-2
0.323, 1.432e-2
0.322, 1.433e-2
0.321, 1.434e-2
0.320, 1.435e-2
0.319, 1.436e-2
0.318, 1.437e-2
0.317, 1.438e-2
0.316, 1.440e-2
0.315, 1.441e-2
0.314, 1.442e-2
0.313, 1.443e-2
0.312, 1.444e-2
0.311, 1.445e-2
0.310, 1.446e-2
0.309, 1.447e-2
0.308, 1.448e-2
0.307, 1.450e-2
0.306, 1.451e-2
0.305, 1.452e-2
0.304, 1.453e-2
0.303, 1.454e-2
0.302, 1.455e-2
0.301, 1.456e-2
0.300, 1.458e-2
0.299, 1.459e-2
0.298, 1.460e-2
0.297, 1.461e-2
0.296, 1.462e-2
0.295, 1.463e-2
0.294, 1.464e-2
0.293, 1.465e-2
0.292, 1.467e-2
0.291, 1.468e-2
0.290, 1.469e-2
0.289, 1.470e-2
0.288, 1.471e-2
0.287, 1.472e-2
0.286, 1.473e-2
0.285, 1.474e-2
0.284, 1.476e-2
0.283, 1.477e-2
0.282, 1.478e-2
0.281, 1.479e-2
0.280, 1.480e-2
0.279, 1.481e-2
0.278, 1.482e-2
0.277, 1.483e-2
0.276, 1.485e-2
0.275, 1.486e-2
0.274, 1.487e-2
0.273, 1.488e-2
0.272, 1.489e-2
0.271, 1.490e-2
0.270, 1.491e-2
0.269, 1.493e-2
0.268, 1.494e-2
0.267, 1.495e-2
0.266, 1.496e-2
0.265, 1.497e-2
0.264, 1.498e-2
0.263, 1.499e-2
0.262, 1.500e-2
0.261, 1.501e-2
0.260, 1.503e-2
0.259, 1.504e-2
0.258, 1.505e-2
0.257, 1.506e-2
0.256, 1.507e-2
0.255, 1.508e-2
0.254, 1.509e-2
0.253, 1.510e-2
0.252, 1.511e-2
0.251, 1.512e-2
0.250, 1.514e-2
0.249, 1.515e-2
0.248, 1.516e-2
0.247, 1.517e-2
0.246, 1.518e-2
0.245, 1.519e-2
0.244, 1.520e-2
0.243, 1.521e-2
0.242, 1.522e-2
0.241, 1.523e-2
0.240, 1.524e-2
0.239, 1.525e-2
0.238, 1.526e-2
0.237, 1.527e-2
0.236, 1.528e-2
0.235, 1.529e-2
0.234, 1.531e-2
0.233, 1.532e-2
0.232, 1.533e-2
0.231, 1.534e-2
0.230, 1.535e-2
0.229, 1.536e-2
0.228, 1.537e-2
0.227, 1.538e-2
0.226, 1.539e-2
0.225, 1.540e-2
0.224, 1.541e-2
0.223, 1.542e-2
0.222, 1.543e-2
0.221, 1.544e-2
0.220, 1.545e-2
0.219, 1.546e-2
0.218, 1.547e-2
0.217, 1.548e-2
0.216, 1.549e-2
0.215, 1.550e-2
0.214, 1.551e-2
0.213, 1.552e-2
0.212, 1.553e-2
0.211, 1.554e-2
0.210, 1.555e-2
0.209, 1.556e-2
0.208, 1.557e-2
0.207, 1.558e-2
0.206, 1.559e-2
0.205, 1.560e-2
0.204, 1.561e-2
0.203, 1.562e-2
0.202, 1.563e-2
0.201, 1.564e-2
0.200, 1.565e-2
0.199, 1.566e-2
0.198, 1.567e-2
0.197, 1.568e-2
0.196, 1.569e-2
0.195, 1.570e-2
0.194, 1.571e-2
0.193, 1.572e-2
0.192, 1.573e-2
0.191, 1.574e-2
0.190, 1.575e-2
0.189, 1.576e-2
0.188, 1.577e-2
0.187, 1.578e-2
0.186, 1.579e-2
0.185, 1.580e-2
0.184, 1.581e-2
0.183, 1.582e-2
0.182, 1.583e-2
0.181, 1.584e-2
0.180, 1.584e-2
0.179, 1.585e-2
0.178, 1.586e-2
0.177, 1.587e-2
0.176, 1.588e-2
0.175, 1.589e-2
0.174, 1.590e-2
0.173, 1.591e-2
0.172, 1.592e-2
0.171, 1.593e-2
0.170, 1.594e-2
0.169, 1.595e-2
0.168, 1.596e-2
0.167, 1.596e-2
0.166, 1.597e-2
0.165, 1.598e-2
0.164, 1.599e-2
0.163, 1.600e-2
0.162, 1.601e-2
0.161, 1.602e-2
0.160, 1.603e-2
0.159, 1.604e-2
0.158, 1.604e-2
0.157, 1.605e-2
0.156, 1.606e-2
0.155, 1.607e-2
0.154, 1.608e-2
0.153, 1.609e-2
0.152, 1.610e-2
0.151, 1.610e-2
0.150, 1.611e-2
0.149, 1.612e-2
0.148, 1.613e-2
0.147, 1.614e-2
0.146, 1.615e-2
0.145, 1.615e-2
0.144, 1.616e-2
0.143, 1.617e-2
0.142, 1.618e-2
0.141, 1.619e-2
0.140, 1.619e-2
0.139, 1.620e-2
0.138, 1.621e-2
0.137, 1.622e-2
0.136, 1.623e-2
0.135, 1.623e-2
0.134, 1.624e-2
0.133, 1.625e-2
0.132, 1.626e-2
0.131, 1.626e-2
0.130, 1.627e-2
0.129, 1.628e-2
0.128, 1.629e-2
0.127, 1.629e-2
0.126, 1.630e-2
0.125, 1.631e-2
0.124, 1.632e-2
0.123, 1.632e-2
0.122, 1.633e-2
0.121, 1.634e-2
0.120, 1.634e-2
0.119, 1.635e-2
0.118, 1.636e-2
0.117, 1.636e-2
0.116, 1.637e-2
0.115, 1.638e-2
0.114, 1.638e-2
0.113, 1.639e-2
0.112, 1.640e-2
0.111, 1.640e-2
0.110, 1.641e-2
0.109, 1.642e-2
0.108, 1.642e-2
0.107, 1.643e-2
0.106, 1.643e-2
0.105, 1.644e-2
0.104, 1.645e-2
0.103, 1.645e-2
0.102, 1.646e-2
0.101, 1.646e-2
0.100, 1.647e-2
0.099, 1.647e-2
0.098, 1.648e-2
0.097, 1.649e-2
0.096, 1.649e-2
0.095, 1.650e-2
0.094, 1.650e-2
0.093, 1.651e-2
0.092, 1.651e-2
0.091, 1.652e-2
0.090, 1.652e-2
0.089, 1.653e-2
0.088, 1.653e-2
0.087, 1.654e-2
0.086, 1.654e-2
0.085, 1.655e-2
0.084, 1.655e-2
0.083, 1.656e-2
0.082, 1.656e-2
0.081, 1.657e-2
0.080, 1.657e-2
0.079, 1.658e-2
0.078, 1.658e-2
0.077, 1.658e-2
0.076, 1.659e-2
0.075, 1.659e-2
0.074, 1.660e-2
0.073, 1.660e-2
0.072, 1.660e-2
0.071, 1.661e-2
0.070, 1.661e-2
0.069, 1.662e-2
0.068, 1.662e-2
0.067, 1.662e-2
0.066, 1.663e-2
0.065, 1.663e-2
0.064, 1.663e-2
0.063, 1.664e-2
0.062, 1.664e-2
0.061, 1.664e-2
0.060, 1.664e-2
0.059, 1.665e-2
0.058, 1.665e-2
0.057, 1.665e-2
0.056, 1.666e-2
0.055, 1.666e-2
0.054, 1.666e-2
0.053, 1.667e-2
0.052, 1.667e-2
0.051, 1.667e-2
0.050, 1.667e-2
0.049, 1.667e-2
0.048, 1.668e-2
0.047, 1.668e-2
0.046, 1.668e-2
0.045, 1.669e-2
0.044, 1.669e-2
0.043, 1.669e-2
0.042, 1.669e-2
0.041, 1.669e-2
0.040, 1.670e-2
0.039, 1.670e-2
0.038, 1.670e-2
0.037, 1.670e-2
0.036, 1.670e-2
0.035, 1.671e-2
0.034, 1.671e-2
0.033, 1.671e-2
0.032, 1.671e-2
0.031, 1.671e-2
0.030, 1.671e-2
0.029, 1.672e-2
0.028, 1.672e-2
0.027, 1.672e-2
0.026, 1.672e-2
0.025, 1.672e-2
0.024, 1.672e-2
0.023, 1.673e-2
0.022, 1.673e-2
0.021, 1.673e-2
0.020, 1.673e-2
0.019, 1.673e-2
0.018, 1.673e-2
0.017, 1.673e-2
0.016, 1.674e-2
0.015, 1.674e-2
0.014, 1.674e-2
0.013, 1.674e-2
0.012, 1.674e-2
0.011, 1.674e-2
0.010, 1.674e-2
0.009, 1.674e-2
0.008, 1.675e-2
0.007, 1.675e-2
0.006, 1.675e-2
0.005, 1.675e-2
0.004, 1.675e-2
0.003, 1.675e-2
0.002, 1.675e-2
0.001, 1.675e-2
0.000, 1.676e-2
-0.001, 1.676e-2
-0.002, 1.676e-2
-0.003, 1.676e-2
-0.004, 1.676e-2
-0.005, 1.676e-2
-0.006, 1.676e-2
-0.007, 1.676e-2
-0.008, 1.676e-2
-0.009, 1.677e-2
-0.010, 1.677e-2
-0.011, 1.677e-2
-0.012, 1.677e-2
-0.013, 1.677e-2
-0.014, 1.677e-2
-0.015, 1.677e-2
-0.016, 1.677e-2
-0.017, 1.677e-2
-0.018, 1.678e-2
-0.019, 1.678e-2
-0.020, 1.678e-2
-0.021, 1.678e-2
-0.022, 1.678e-2
-0.023, 1.678e-2
-0.024, 1.678e-2
-0.025, 1.679e-2
-0.026, 1.679e-2
-0.027, 1.679e-2
-0.028, 1.679e-2
-0.029, 1.680e-2
-0.030, 1.680e-2
-0.031, 1.680e-2
-0.032, 1.680e-2
-0.033, 1.680e-2
-0.034, 1.681e-2
-0.035, 1.681e-2
-0.036, 1.681e-2
-0.037, 1.681e-2
-0.038, 1.682e-2
-0.039, 1.682e-2
-0.040, 1.682e-2
-0.041, 1.682e-2
-0.042, 1.683e-2
-0.043, 1.683e-2
-0.044, 1.683e-2
-0.045, 1.684e-2
-0.046, 1.684e-2
-0.047, 1.684e-2
-0.048, 1.684e-2
-0.049, 1.685e-2
-0.050, 1.685e-2
-0.051, 1.685e-2
-0.052, 1.686e-2
-0.053, 1.686e-2
-0.054, 1.686e-2
-0.055, 1.686e-2
-0.056, 1.687e-2
-0.057, 1.687e-2
-0.058, 1.687e-2
-0.059, 1.688e-2
-0.060, 1.688e-2
-0.061, 1.688e-2
-0.062, 1.688e-2
-0.063, 1.689e-2
-0.064, 1.689e-2
-0.065, 1.689e-2
-0.066, 1.690e-2
-0.067, 1.690e-2
-0.068, 1.690e-2
-0.069, 1.691e-2
-0.070, 1.691e-2
-0.071, 1.691e-2
-0.072, 1.692e-2
-0.073, 1.692e-2
-0.074, 1.693e-2
-0.075, 1.693e-2
-0.076, 1.693e-2
-0.077, 1.694e-2
-0.078, 1.694e-2
-0.079, 1.695e-2
-0.080, 1.695e-2
-0.081, 1.696e-2
-0.082, 1.696e-2
-0.083, 1.696e-2
-0.084, 1.697e-2
-0.085, 1.697e-2
-0.086, 1.698e-2
-0.087, 1.698e-2
-0.088, 1.699e-2
-0.089, 1.699e-2
-0.090, 1.700e-2
-0.091, 1.701e-2
-0.092, 1.701e-2
-0.093, 1.702e-2
-0.094, 1.702e-2
-0.095, 1.703e-2
-0.096, 1.703e-2
-0.097, 1.704e-2
-0.098, 1.705e-2
-0.099, 1.705e-2
-0.100, 1.701e-2
-0.099, 1.687e-2
-0.098, 1.673e-2
-0.097, 1.659e-2
-0.096, 1.645e-2
-0.095, 1.632e-2
-0.094, 1.619e-2
-0.093, 1.605e-2
-0.092, 1.592e-2
-0.091, 1.579e-2
-0.090, 1.566e-2
-0.089, 1.554e-2
-0.088, 1.541e-2
-0.087, 1.529e-2
-0.086, 1.516e-2
-0.085, 1.504e-2
-0.084, 1.492e-2
-0.083, 1.480e-2
-0.082, 1.468e-2
-0.081, 1.456e-2
-0.080, 1.444e-2
-0.079, 1.433e-2
-0.078, 1.421e-2
-0.077, 1.409e-2
-0.076, 1.398e-2
-0.075, 1.386e-2
-0.074, 1.375e-2
-0.073, 1.364e-2
-0.072, 1.353e-2
-0.071, 1.342e-2
-0.070, 1.331e-2
-0.069, 1.320e-2
-0.068, 1.309e-2
-0.067, 1.298e-2
-0.066, 1.288e-2
-0.065, 1.277e-2
-0.064, 1.266e-2
-0.063, 1.256e-2
-0.062, 1.245e-2
-0.061, 1.235e-2
-0.060, 1.225e-2
-0.059, 1.215e-2
-0.058, 1.204e-2
-0.057, 1.194e-2
-0.056, 1.184e-2
-0.055, 1.174e-2
-0.054, 1.164e-2
-0.053, 1.154e-2
-0.052, 1.144e-2
-0.051, 1.135e-2
-0.050, 1.125e-2
-0.049, 1.115e-2
-0.048, 1.106e-2
-0.047, 1.096e-2
-0.046, 1.086e-2
-0.045, 1.077e-2
-0.044, 1.068e-2
-0.043, 1.058e-2
-0.042, 1.049e-2
-0.041, 1.040e-2
-0.040, 1.030e-2
-0.039, 1.021e-2
-0.038, 1.012e-2
-0.037, 1.003e-2
-0.036, 9.940e-3
-0.035, 9.850e-3
-0.034, 9.761e-3
-0.033, 9.672e-3
-0.032, 9.583e-3
-0.031, 9.494e-3
-0.030, 9.406e-3
-0.029, 9.319e-3
-0.028, 9.232e-3
-0.027, 9.146e-3
-0.026, 9.061e-3
-0.025, 8.975e-3
-0.024, 8.890e-3
-0.023, 8.806e-3
-0.022, 8.720e-3
-0.021, 8.636e-3
-0.020, 8.552e-3
-0.019, 8.469e-3
-0.018, 8.386e-3
-0.017, 8.303e-3
-0.016, 8.222e-3
-0.015, 8.140e-3
-0.014, 8.059e-3
-0.013, 7.978e-3
-0.012, 7.896e-3
-0.011, 7.816e-3
-0.010, 7.736e-3
-0.009, 7.656e-3
-0.008, 7.577e-3
-0.007, 7.499e-3
-0.006, 7.420e-3
-0.005, 7.342e-3
-0.004, 7.264e-3
-0.003, 7.187e-3
-0.002, 7.109e-3
-0.001, 7.031e-3
-0.000, 6.954e-3
0.001, 6.877e-3
0.002, 6.801e-3
0.003, 6.726e-3
0.004, 6.650e-3
0.005, 6.576e-3
0.006, 6.501e-3
0.007, 6.426e-3
0.008, 6.352e-3
0.009, 6.277e-3
0.010, 6.204e-3
0.011, 6.131e-3
0.012, 6.058e-3
0.013, 5.986e-3
0.014, 5.915e-3
0.015, 5.843e-3
0.016, 5.771e-3
0.017, 5.700e-3
0.018, 5.629e-3
0.019, 5.557e-3
0.020, 5.486e-3
0.021, 5.416e-3
0.022, 5.346e-3
0.023, 5.276e-3
0.024, 5.207e-3
0.025, 5.137e-3
0.026, 5.068e-3
0.027, 5.000e-3
0.028, 4.931e-3
0.029, 4.863e-3
0.030, 4.795e-3
0.031, 4.727e-3
0.032, 4.659e-3
0.033, 4.592e-3
0.034, 4.525e-3
0.035, 4.459e-3
0.036, 4.392e-3
0.037, 4.327e-3
0.038, 4.261e-3
0.039, 4.195e-3
0.040, 4.131e-3
0.041, 4.065e-3
0.042, 4.000e-3
0.043, 3.935e-3
0.044, 3.870e-3
0.045, 3.806e-3
0.046, 3.742e-3
0.047, 3.678e-3
0.048, 3.615e-3
0.049, 3.551e-3
0.050, 3.488e-3
0.051, 3.425e-3
0.052, 3.363e-3
0.053, 3.300e-3
0.054, 3.238e-3
0.055, 3.175e-3
0.056, 3.113e-3
0.057, 3.052e-3
0.058, 2.991e-3
0.059, 2.930e-3
0.060, 2.869e-3
0.061, 2.809e-3
0.062, 2.749e-3
0.063, 2.689e-3
0.064, 2.629e-3
0.065, 2.570e-3
0.066, 2.510e-3
0.067, 2.451e-3
0.068, 2.391e-3
0.069, 2.332e-3
0.070, 2.273e-3
0.071, 2.215e-3
0.072, 2.157e-3
0.073, 2.099e-3
0.074, 2.041e-3
0.075, 1.983e-3
0.076, 1.925e-3
0.077, 1.868e-3
0.078, 1.811e-3
0.079, 1.754e-3
0.080, 1.698e-3
0.081, 1.641e-3
0.082, 1.584e-3
0.083, 1.528e-3
0.084, 1.472e-3
0.085, 1.417e-3
0.086, 1.361e-3
0.087, 1.306e-3
0.088, 1.252e-3
0.089, 1.197e-3
0.090, 1.142e-3
0.091, 1.088e-3
0.092, 1.034e-3
0.093, 9.800e-4
0.094, 9.260e-4
0.095, 8.714e-4
0.096, 8.174e-4
0.097, 7.637e-4
0.098, 7.107e-4
0.099, 6.581e-4
0.100, 6.052e-4
0.101, 5.528e-4
0.102, 4.996e-4
0.103, 4.467e-4
0.104, 3.947e-4
0.105, 3.426e-4
0.106, 2.912e-4
0.107, 2.398e-4
0.108, 1.885e-4
0.109, 1.371e-4
0.110, 8.527e-5
0.111, 3.380e-5
0.112, -1.647e-5
0.113, -6.721e-5
0.114, -1.171e-4
0.115, -1.672e-4
0.116, -2.172e-4
0.117, -2.670e-4
0.118, -3.163e-4
0.119, -3.649e-4
0.120, -4.141e-4
0.121, -4.637e-4
0.122, -5.124e-4
0.123, -5.612e-4
0.124, -6.099e-4
0.125, -6.584e-4
0.126, -7.076e-4
0.127, -7.560e-4
0.128, -8.039e-4
0.129, -8.524e-4
0.130, -8.993e-4
0.131, -9.468e-4
0.132, -9.946e-4
0.133, -1.041e-3
0.134, -1.089e-3
0.135, -1.136e-3
0.136, -1.182e-3
0.137, -1.229e-3
0.138, -1.275e-3
0.139, -1.321e-3
0.140, -1.368e-3
0.141, -1.413e-3
0.142, -1.459e-3
0.143, -1.506e-3
0.144, -1.551e-3
0.145, -1.597e-3
0.146, -1.642e-3
0.147, -1.687e-3
0.148, -1.732e-3
0.149, -1.776e-3
0.150, -1.821e-3
0.151, -1.865e-3
0.152, -1.908e-3
0.153, -1.953e-3
0.154, -1.997e-3
0.155, -2.041e-3
0.156, -2.084e-3
0.157, -2.127e-3
0.158, -2.171e-3
0.159, -2.214e-3
0.160, -2.258e-3
0.161, -2.302e-3
0.162, -2.345e-3
0.163, -2.387e-3
0.164, -2.430e-3
0.165, -2.472e-3
0.166, -2.514e-3
0.167, -2.556e-3
0.168, -2.598e-3
0.169, -2.641e-3
0.170, -2.682e-3
0.171, -2.724e-3
0.172, -2.765e-3
0.173, -2.807e-3
0.174, -2.848e-3
0.175, -2.889e-3
0.176, -2.930e-3
0.177, -2.971e-3
0.178, -3.011e-3
0.179, -3.053e-3
0.180, -3.094e-3
0.181, -3.133e-3
0.182, -3.174e-3
0.183, -3.214e-3
0.184, -3.253e-3
0.185, -3.293e-3
0.186, -3.333e-3
0.187, -3.372e-3
0.188, -3.412e-3
0.189, -3.450e-3
0.190, -3.489e-3
0.191, -3.528e-3
0.192, -3.566e-3
0.193, -3.605e-3
0.194, -3.644e-3
0.195, -3.682e-3
0.196, -3.720e-3
0.197, -3.758e-3
0.198, -3.797e-3
0.199, -3.836e-3
0.200, -3.874e-3
0.201, -3.912e-3
0.202, -3.949e-3
0.203, -3.987e-3
0.204, -4.024e-3
0.205, -4.061e-3
0.206, -4.099e-3
0.207, -4.136e-3
0.208, -4.173e-3
0.209, -4.209e-3
0.210, -4.246e-3
0.211, -4.283e-3
0.212, -4.320e-3
0.213, -4.356e-3
0.214, -4.392e-3
0.215, -4.428e-3
0.216, -4.464e-3
0.217, -4.500e-3
0.218, -4.535e-3
0.219, -4.571e-3
0.220, -4.607e-3
0.221, -4.643e-3
0.222, -4.679e-3
0.223, -4.714e-3
0.224, -4.749e-3
0.225, -4.784e-3
0.226, -4.819e-3
0.227, -4.854e-3
0.228, -4.889e-3
0.229, -4.923e-3
0.230, -4.958e-3
0.231, -4.992e-3
0.232, -5.026e-3
0.233, -5.060e-3
0.234, -5.094e-3
0.235, -5.128e-3
0.236, -5.162e-3
0.237, -5.196e-3
0.238, -5.229e-3
0.239, -5.263e-3
0.240, -5.297e-3
0.241, -5.330e-3
0.242, -5.363e-3
0.243, -5.397e-3
0.244, -5.431e-3
0.245, -5.464e-3
0.246, -5.497e-3
0.247, -5.530e-3
0.248, -5.563e-3
0.249, -5.595e-3
0.250, -5.628e-3
0.251, -5.661e-3
0.252, -5.693e-3
0.253, -5.725e-3
0.254, -5.758e-3
0.255, -5.790e-3
0.256, -5.822e-3
0.257, -5.854e-3
0.258, -5.886e-3
0.259, -5.918e-3
0.260, -5.950e-3
0.261, -5.981e-3
0.262, -6.012e-3
0.263, -6.044e-3
0.264, -6.075e-3
0.265, -6.106e-3
0.266, -6.138e-3
0.267, -6.169e-3
0.268, -6.201e-3
0.269, -6.232e-3
0.270, -6.263e-3
0.271, -6.294e-3
0.272, -6.324e-3
0.273, -6.355e-3
0.274, -6.385e-3
0.275, -6.416e-3
0.276, -6.447e-3
0.277, -6.477e-3
0.278, -6.508e-3
0.279, -6.538e-3
0.280, -6.568e-3
0.281, -6.597e-3
0.282, -6.627e-3
0.283, -6.657e-3
0.284, -6.687e-3
0.285, -6.717e-3
0.286, -6.747e-3
0.287, -6.776e-3
0.288, -6.805e-3
0.289, -6.835e-3
0.290, -6.865e-3
0.291, -6.894e-3
0.292, -6.923e-3
0.293, -6.953e-3
0.294, -6.983e-3
0.295, -7.012e-3
0.296, -7.041e-3
0.297, -7.070e-3
0.298, -7.099e-3
0.299, -7.127e-3
0.300, -7.157e-3
0.301, -7.185e-3
0.302, -7.214e-3
0.303, -7.243e-3
0.304, -7.271e-3
0.305, -7.300e-3
0.306, -7.329e-3
0.307, -7.358e-3
0.308, -7.387e-3
0.309, -7.415e-3
0.310, -7.443e-3
0.311, -7.472e-3
0.312, -7.500e-3
0.313, -7.529e-3
0.314, -7.557e-3
0.315, -7.585e-3
0.316, -7.613e-3
0.317, -7.641e-3
0.318, -7.669e-3
0.319, -7.697e-3
0.320, -7.726e-3
0.321, -7.754e-3
0.322, -7.782e-3
0.323, -7.810e-3
0.324, -7.838e-3
0.325, -7.865e-3
0.326, -7.893e-3
0.327, -7.921e-3
0.328, -7.949e-3
0.329, -7.976e-3
0.330, -8.004e-3
0.331, -8.031e-3
0.332, -8.059e-3
0.333, -8.086e-3
0.334, -8.114e-3
0.335, -8.141e-3
0.336, -8.167e-3
0.337, -8.194e-3
0.338, -8.221e-3
0.339, -8.249e-3
0.340, -8.276e-3
0.341, -8.303e-3
0.342, -8.331e-3
0.343, -8.357e-3
0.344, -8.384e-3
0.345, -8.411e-3
0.346, -8.438e-3
0.347, -8.465e-3
0.348, -8.492e-3
0.349, -8.518e-3
0.350, -8.546e-3
0.351, -8.573e-3
0.352, -8.600e-3
0.353, -8.627e-3
0.354, -8.654e-3
0.355, -8.680e-3
0.356, -8.707e-3
0.357, -8.733e-3
0.358, -8.759e-3
0.359, -8.787e-3
0.360, -8.813e-3
0.361, -8.839e-3
0.362, -8.866e-3
0.363, -8.892e-3
0.364, -8.919e-3
0.365, -8.946e-3
0.366, -8.972e-3
0.367, -8.998e-3
0.368, -9.025e-3
0.369, -9.051e-3
0.370, -9.077e-3
0.371, -9.103e-3
0.372, -9.130e-3
0.373, -9.155e-3
0.374, -9.182e-3
0.375, -9.207e-3
0.376, -9.233e-3
0.377, -9.259e-3
0.378, -9.286e-3
0.379, -9.312e-3
0.380, -9.339e-3
0.381, -9.365e-3
0.382, -9.391e-3
0.383, -9.417e-3
0.384, -9.443e-3
0.385, -9.469e-3
0.386, -9.495e-3
0.387, -9.521e-3
0.388, -9.547e-3
0.389, -9.573e-3
0.390, -9.599e-3
0.391, -9.625e-3
0.392, -9.651e-3
0.393, -9.677e-3
0.394, -9.702e-3
0.395, -9.727e-3
0.396, -9.752e-3
0.397, -9.777e-3
0.398, -9.803e-3
0.399, -9.829e-3
0.400, -9.855e-3
0.401, -9.881e-3
0.402, -9.906e-3
0.403, -9.931e-3
0.404, -9.957e-3
0.405, -9.982e-3
0.406, -1.001e-2
0.407, -1.003e-2
0.408, -1.006e-2
0.409, -1.008e-2
0.410, -1.011e-2
0.411, -1.014e-2
0.412, -1.016e-2
0.413, -1.019e-2
0.414, -1.021e-2
0.415, -1.024e-2
0.416, -1.026e-2
0.417, -1.029e-2
0.418, -1.031e-2
0.419, -1.034e-2
0.420, -1.036e-2
0.421, -1.039e-2
0.422, -1.042e-2
0.423, -1.044e-2
0.424, -1.047e-2
0.425, -1.049e-2
0.426, -1.052e-2
0.427, -1.054e-2
0.428, -1.057e-2
0.429, -1.059e-2
0.430, -1.062e-2
0.431, -1.064e-2
0.432, -1.067e-2
0.433, -1.069e-2
0.434, -1.072e-2
0.435, -1.074e-2
0.436, -1.077e-2
0.437, -1.079e-2
0.438, -1.082e-2
0.439, -1.084e-2
0.440, -1.087e-2
0.441, -1.089e-2
0.442, -1.092e-2
0.443, -1.094e-2
0.444, -1.097e-2
0.445, -1.099e-2
0.446, -1.102e-2
0.447, -1.104e-2
0.448, -1.107e-2
0.449, -1.109e-2
0.450, -1.112e-2
0.451, -1.114e-2
0.452, -1.117e-2
0.453, -1.119e-2
0.454, -1.122e-2
0.455, -1.124e-2
0.456, -1.127e-2
0.457, -1.129e-2
0.458, -1.132e-2
0.459, -1.134e-2
0.460, -1.137e-2
0.461, -1.139e-2
0.462, -1.141e-2
0.463, -1.144e-2
0.464, -1.146e-2
0.465, -1.149e-2
0.466, -1.151e-2
0.467, -1.154e-2
0.468, -1.156e-2
0.469, -1.159e-2
0.470, -1.161e-2
0.471, -1.163e-2
0.472, -1.166e-2
0.473, -1.168e-2
0.474, -1.171e-2
0.475, -1.173e-2
0.476, -1.176e-2
0.477, -1.178e-2
0.478, -1.180e-2
0.479, -1.183e-2
0.480, -1.185e-2
0.481, -1.188e-2
0.482, -1.190e-2
0.483, -1.192e-2
0.484, -1.195e-2
0.485, -1.197e-2
0.486, -1.199e-2
0.487, -1.202e-2
0.488, -1.204e-2
0.489, -1.207e-2
0.490, -1.209e-2
0.491, -1.211e-2
0.492, -1.214e-2
0.493, -1.216e-2
0.494, -1.219e-2
0.495, -1.221e-2
0.496, -1.223e-2
0.497, -1.226e-2
0.498, -1.228e-2
0.499, -1.230e-2
0.500, -1.233e-2
0.501, -1.235e-2
0.502, -1.237e-2
0.503, -1.240e-2
0.504, -1.242e-2
0.505, -1.244e-2
0.506, -1.247e-2
0.507, -1.249e-2
0.508, -1.251e-2
0.509, -1.254e-2
0.510, -1.256e-2
0.511, -1.258e-2
0.512, -1.261e-2
0.513, -1.263e-2
0.514, -1.265e-2
0.515, -1.267e-2
0.516, -1.270e-2
0.517, -1.272e-2
0.518, -1.274e-2
0.519, -1.277e-2
0.520, -1.279e-2
0.521, -1.281e-2
0.522, -1.283e-2
0.523, -1.285e-2
0.524, -1.288e-2
0.525, -1.290e-2
0.526, -1.292e-2
0.527, -1.294e-2
0.528, -1.296e-2
0.529, -1.299e-2
0.530, -1.301e-2
0.531, -1.303e-2
0.532, -1.305e-2
0.533, -1.308e-2
0.534, -1.310e-2
0.535, -1.312e-2
0.536, -1.314e-2
0.537, -1.316e-2
0.538, -1.318e-2
0.539, -1.321e-2
0.540, -1.323e-2
0.541, -1.325e-2
0.542, -1.327e-2
0.543, -1.329e-2
0.544, -1.332e-2
0.545, -1.334e-2
0.546, -1.336e-2
0.547, -1.338e-2
0.548, -1.340e-2
0.549, -1.342e-2
0.550, -1.344e-2
0.551, -1.346e-2
0.552, -1.348e-2
0.553, -1.351e-2
0.554, -1.353e-2
0.555, -1.355e-2
0.556, -1.357e-2
0.557, -1.359e-2
0.558, -1.361e-2
0.559, -1.363e-2
0.560, -1.365e-2
0.561, -1.367e-2
0.562, -1.369e-2
0.563, -1.372e-2
0.564, -1.374e-2
0.565, -1.376e-2
0.566, -1.378e-2
0.567, -1.380e-2
0.568, -1.382e-2
0.569, -1.384e-2
0.570, -1.386e-2
0.571, -1.388e-2
0.572, -1.390e-2
0.573, -1.392e-2
0.574, -1.394e-2
0.575, -1.396e-2
0.576, -1.398e-2
0.577, -1.400e-2
0.578, -1.402e-2
0.579, -1.404e-2
0.580, -1.406e-2
0.581, -1.408e-2
0.582, -1.410e-2
0.583, -1.412e-2
0.584, -1.414e-2
0.585, -1.416e-2
0.586, -1.418e-2
0.587, -1.420e-2
0.588, -1.422e-2
0.589, -1.424e-2
0.590, -1.426e-2
0.591, -1.428e-2
0.592, -1.430e-2
0.593, -1.432e-2
0.594, -1.434e-2
0.595, -1.436e-2
0.596, -1.438e-2
0.597, -1.439e-2
0.598, -1.441e-2
0.599, -1.443e-2
0.600, -1.445e-2
0.601, -1.447e-2
0.602, -1.449e-2
0.603, -1.451e-2
0.604, -1.453e-2
0.605, -1.454e-2
0.606, -1.456e-2
0.607, -1.458e-2
0.608, -1.460e-2
0.609, -1.462e-2
0.610, -1.464e-2
0.611, -1.466e-2
0.612, -1.468e-2
0.613, -1.469e-2
0.614, -1.471e-2
0.615, -1.473e-2
0.616, -1.475e-2
0.617, -1.477e-2
0.618, -1.479e-2
0.619, -1.481e-2
0.620, -1.482e-2
0.621, -1.484e-2
0.622, -1.486e-2
0.623, -1.488e-2
0.624, -1.490e-2
0.625, -1.492e-2
0.626, -1.493e-2
0.627, -1.495e-2
0.628, -1.497e-2
0.629, -1.499e-2
0.630, -1.500e-2
0.631, -1.502e-2
0.632, -1.504e-2
0.633, -1.506e-2
0.634, -1.508e-2
0.635, -1.509e-2
0.636, -1.511e-2
0.637, -1.513e-2
0.638, -1.515e-2
0.639, -1.516e-2
0.640, -1.518e-2
0.641, -1.520e-2
0.642, -1.522e-2
0.643, -1.523e-2
0.644, -1.525e-2
0.645, -1.527e-2
0.646, -1.528e-2
0.647, -1.530e-2
0.648, -1.532e-2
0.649, -1.534e-2
0.650, -1.535e-2
0.651, -1.537e-2
0.652, -1.539e-2
0.653, -1.540e-2
0.654, -1.542e-2
0.655, -1.543e-2
0.656, -1.545e-2
0.657, -1.547e-2
0.658, -1.548e-2
0.659, -1.550e-2
0.660, -1.552e-2
0.661, -1.553e-2
0.662, -1.555e-2
0.663, -1.557e-2
0.664, -1.558e-2
0.665, -1.560e-2
0.666, -1.561e-2
0.667, -1.563e-2
0.668, -1.565e-2
0.669, -1.566e-2
0.670, -1.568e-2
0.671, -1.569e-2
0.672, -1.571e-2
0.673, -1.572e-2
0.674, -1.574e-2
0.675, -1.575e-2
0.676, -1.577e-2
0.677, -1.578e-2
0.678, -1.580e-2
0.679, -1.581e-2
0.680, -1.583e-2
0.681, -1.584e-2
0.682, -1.586e-2
0.683, -1.587e-2
0.684, -1.589e-2
0.685, -1.590e-2
0.686, -1.592e-2
0.687, -1.593e-2
0.688, -1.594e-2
0.689, -1.596e-2
0.690, -1.597e-2
0.691, -1.599e-2
0.692, -1.600e-2
0.693, -1.601e-2
0.694, -1.603e-2
0.695, -1.604e-2
0.696, -1.605e-2
0.697, -1.607e-2
0.698, -1.608e-2
0.699, -1.609e-2
0.700, -1.611e-2
0.701, -1.612e-2
0.702, -1.613e-2
0.703, -1.615e-2
0.704, -1.616e-2
0.705, -1.617e-2
0.706, -1.618e-2
0.707, -1.620e-2
0.708, -1.621e-2
0.709, -1.622e-2
0.710, -1.624e-2
0.711, -1.625e-2
0.712, -1.626e-2
0.713, -1.627e-2
0.714, -1.628e-2
0.715, -1.630e-2
0.716, -1.631e-2
0.717, -1.632e-2
0.718, -1.633e-2
0.719, -1.635e-2
0.720, -1.636e-2
0.721, -1.637e-2
0.722, -1.638e-2
0.723, -1.639e-2
0.724, -1.640e-2
0.725, -1.642e-2
0.726, -1.643e-2
0.727, -1.644e-2
0.728, -1.645e-2
0.729, -1.646e-2
0.730, -1.647e-2
0.731, -1.648e-2
0.732, -1.649e-2
0.733, -1.650e-2
0.734, -1.652e-2
0.735, -1.653e-2
0.736, -1.654e-2
0.737, -1.655e-2
0.738, -1.656e-2
0.739, -1.657e-2
0.740, -1.658e-2
0.741, -1.659e-2
0.742, -1.660e-2
0.743, -1.661e-2
0.744, -1.662e-2
0.745, -1.663e-2
0.746, -1.664e-2
0.747, -1.665e-2
0.748, -1.666e-2
0.749, -1.667e-2
0.750, -1.668e-2
0.751, -1.669e-2
0.752, -1.670e-2
0.753, -1.670e-2
0.754, -1.671e-2
0.755, -1.672e-2
0.756, -1.673e-2
0.757, -1.674e-2
0.758, -1.675e-2
0.759, -1.676e-2
0.760, -1.677e-2
0.761, -1.678e-2
0.762, -1.679e-2
0.763, -1.679e-2
0.764, -1.680e-2
0.765, -1.681e-2
0.766, -1.682e-2
0.767, -1.683e-2
0.768, -1.684e-2
0.769, -1.684e-2
0.770, -1.685e-2
0.771, -1.686e-2
0.772, -1.687e-2
0.773, -1.688e-2
0.774, -1.688e-2
0.775, -1.689e-2
0.776, -1.690e-2
0.777, -1.691e-2
0.778, -1.692e-2
0.779, -1.692e-2
0.780, -1.693e-2
0.781, -1.694e-2
0.782, -1.695e-2
0.783, -1.695e-2
0.784, -1.696e-2
0.785, -1.697e-2
0.786, -1.698e-2
0.787, -1.698e-2
0.788, -1.699e-2
0.789, -1.700e-2
0.790, -1.701e-2
0.791, -1.701e-2
0.792, -1.702e-2
0.793, -1.703e-2
0.794, -1.703e-2
0.795, -1.704e-2
0.796, -1.705e-2
0.797, -1.705e-2
0.798, -1.706e-2
0.799, -1.707e-2
0.800, -1.707e-2
0.801, -1.708e-2
0.802, -1.709e-2
0.803, -1.709e-2
0.804, -1.710e-2
0.805, -1.711e-2
0.806, -1.711e-2
0.807, -1.712e-2
0.808, -1.713e-2
0.809, -1.713e-2
0.810, -1.714e-2
0.811, -1.714e-2
0.812, -1.715e-2
0.813, -1.716e-2
0.814, -1.716e-2
0.815, -1.717e-2
0.816, -1.717e-2
0.817, -1.718e-2
0.818, -1.719e-2
0.819, -1.719e-2
0.820, -1.720e-2
0.821, -1.720e-2
0.822, -1.721e-2
0.823, -1.721e-2
0.824, -1.722e-2
0.825, -1.722e-2
0.826, -1.723e-2
0.827, -1.724e-2
0.828, -1.724e-2
0.829, -1.725e-2
0.830, -1.725e-2
0.831, -1.726e-2
0.832, -1.726e-2
0.833, -1.727e-2
0.834, -1.727e-2
0.835, -1.728e-2
0.836, -1.728e-2
0.837, -1.729e-2
0.838, -1.729e-2
0.839, -1.730e-2
0.840, -1.730e-2
0.841, -1.730e-2
0.842, -1.731e-2
0.843, -1.731e-2
0.844, -1.732e-2
0.845, -1.732e-2
0.846, -1.733e-2
0.847, -1.733e-2
0.848, -1.733e-2
0.849, -1.734e-2
0.850, -1.734e-2
0.851, -1.735e-2
0.852, -1.735e-2
0.853, -1.735e-2
0.854, -1.736e-2
0.855, -1.736e-2
0.856, -1.737e-2
0.857, -1.737e-2
0.858, -1.737e-2
0.859, -1.738e-2
0.860, -1.738e-2
0.861, -1.738e-2
0.862, -1.739e-2
0.863, -1.739e-2
0.864, -1.739e-2
0.865, -1.740e-2
0.866, -1.740e-2
0.867, -1.740e-2
0.868, -1.741e-2
0.869, -1.741e-2
0.870, -1.741e-2
0.871, -1.742e-2
0.872, -1.742e-2
0.873, -1.742e-2
0.874, -1.743e-2
0.875, -1.743e-2
0.876, -1.743e-2
0.877, -1.744e-2
0.878, -1.744e-2
0.879, -1.744e-2
0.880, -1.745e-2
0.881, -1.745e-2
0.882, -1.745e-2
0.883, -1.745e-2
0.884, -1.746e-2
0.885, -1.746e-2
0.886, -1.746e-2
0.887, -1.747e-2
0.888, -1.747e-2
0.889, -1.747e-2
0.890, -1.748e-2
0.891, -1.748e-2
0.892, -1.748e-2
0.893, -1.748e-2
0.894, -1.749e-2
0.895, -1.749e-2
0.896, -1.749e-2
0.897, -1.750e-2
0.898, -1.750e-2
0.899, -1.750e-2
0.900, -1.750e-2
0.901, -1.751e-2
0.902, -1.751e-2
0.903, -1.751e-2
0.904, -1.751e-2
0.905, -1.752e-2
0.906, -1.752e-2
0.907, -1.752e-2
0.908, -1.753e-2
0.909, -1.753e-2
0.910, -1.753e-2
0.911, -1.753e-2
0.912, -1.753e-2
0.913, -1.754e-2
0.914, -1.754e-2
0.915, -1.754e-2
0.916, -1.754e-2
0.917, -1.755e-2
0.918, -1.755e-2
0.919, -1.755e-2
0.920, -1.755e-2
0.921, -1.756e-2
0.922, -1.756e-2
0.923, -1.756e-2
0.924, -1.756e-2
0.925, -1.756e-2
0.926, -1.757e-2
0.927, -1.757e-2
0.928, -1.757e-2
0.929, -1.757e-2
0.930, -1.758e-2
0.931, -1.758e-2
0.932, -1.758e-2
0.933, -1.758e-2
0.934, -1.759e-2
0.935, -1.759e-2
0.936, -1.759e-2
0.937, -1.759e-2
0.938, -1.759e-2
0.939, -1.760e-2
0.940, -1.760e-2
0.941, -1.760e-2
0.942, -1.760e-2
0.943, -1.761e-2
0.944, -1.761e-2
0.945, -1.761e-2
0.946, -1.761e-2
0.947, -1.762e-2
0.948, -1.762e-2
0.949, -1.762e-2
0.950, -1.762e-2
0.951, -1.763e-2
0.952, -1.763e-2
0.953, -1.763e-2
0.954, -1.763e-2
0.955, -1.764e-2
0.956, -1.764e-2
0.957, -1.764e-2
0.958, -1.764e-2
0.959, -1.765e-2
0.960, -1.765e-2
0.961, -1.765e-2
0.962, -1.766e-2
0.963, -1.766e-2
0.964, -1.766e-2
0.965, -1.766e-2
0.966, -1.767e-2
0.967, -1.767e-2
0.968, -1.767e-2
0.969, -1.768e-2
0.970, -1.768e-2
0.971, -1.768e-2
0.972, -1.769e-2
0.973, -1.769e-2
0.974, -1.769e-2
0.975, -1.770e-2
0.976, -1.770e-2
0.977, -1.770e-2
0.978, -1.771e-2
0.979, -1.771e-2
0.980, -1.771e-2
0.981, -1.772e-2
0.982, -1.772e-2
0.983, -1.772e-2
0.984, -1.773e-2
0.985, -1.773e-2
0.986, -1.773e-2
0.987, -1.774e-2
0.988, -1.774e-2
0.989, -1.775e-2
0.990, -1.775e-2
0.991, -1.775e-2
0.992, -1.776e-2
0.993, -1.776e-2
0.994, -1.777e-2
0.995, -1.777e-2
0.996, -1.778e-2
0.997, -1.778e-2
0.998, -1.779e-2
0.999, -1.779e-2
1.000, -1.779e-2
1.001, -1.780e-2
1.002, -1.780e-2
1.003, -1.781e-2
1.004, -1.781e-2
1.005, -1.782e-2
1.006, -1.782e-2
1.007, -1.783e-2
1.008, -1.783e-2
1.009, -1.784e-2
1.010, -1.784e-2
1.011, -1.785e-2
1.012, -1.786e-2
1.013, -1.786e-2
1.014, -1.787e-2
1.015, -1.787e-2
1.016, -1.788e-2
1.017, -1.788e-2
1.018, -1.789e-2
1.019, -1.790e-2
1.020, -1.790e-2
1.021, -1.791e-2
1.022, -1.791e-2
1.023, -1.792e-2
1.024, -1.793e-2
1.025, -1.793e-2
1.026, -1.794e-2
1.027, -1.795e-2
1.028, -1.796e-2
1.029, -1.796e-2
1.030, -1.797e-2
1.031, -1.798e-2
1.032, -1.798e-2
1.033, -1.799e-2
1.034, -1.800e-2
1.035, -1.800e-2
1.036, -1.801e-2
1.037, -1.802e-2
1.038, -1.803e-2
1.039, -1.804e-2
1.040, -1.804e-2
1.041, -1.805e-2
1.042, -1.806e-2
1.043, -1.807e-2
1.044, -1.808e-2
1.045, -1.808e-2
1.046, -1.809e-2
1.047, -1.810e-2
1.048, -1.811e-2
1.049, -1.812e-2
1.050, -1.813e-2
1.051, -1.814e-2
1.052, -1.815e-2
1.053, -1.815e-2
1.054, -1.816e-2
1.055, -1.817e-2
1.056, -1.818e-2
1.057, -1.819e-2
1.058, -1.820e-2
1.059, -1.821e-2
1.060, -1.822e-2
1.061, -1.823e-2
1.062, -1.824e-2
1.063, -1.825e-2
1.064, -1.826e-2
1.065, -1.827e-2
1.066, -1.828e-2
1.067, -1.829e-2
1.068, -1.831e-2
1.069, -1.832e-2
1.070, -1.833e-2
1.071, -1.834e-2
1.072, -1.835e-2
1.073, -1.836e-2
1.074, -1.837e-2
1.075, -1.838e-2
1.076, -1.840e-2
1.077, -1.841e-2
1.078, -1.842e-2
1.079, -1.843e-2
1.080, -1.844e-2
1.081, -1.846e-2
1.082, -1.847e-2
1.083, -1.848e-2
1.084, -1.849e-2
1.085, -1.851e-2
1.086, -1.852e-2
1.087, -1.853e-2
1.088, -1.855e-2
1.089, -1.856e-2
1.090, -1.857e-2
1.091, -1.859e-2
1.092, -1.860e-2
1.093, -1.861e-2
1.094, -1.863e-2
1.095, -1.864e-2
1.096, -1.865e-2
1.097, -1.867e-2
1.098, -1.868e-2
1.099, -1.870e-2
1.100, -1.866e-2
1.099, -1.850e-2
1.098, -1.834e-2
1.097, -1.818e-2
1.096, -1.803e-2
1.095, -1.787e-2
1.094, -1.772e-2
1.093, -1.756e-2
1.092, -1.741e-2
1.091, -1.726e-2
1.090, -1.711e-2
1.089, -1.696e-2
1.088, -1.681e-2
1.087, -1.667e-2
1.086, -1.652e-2
1.085, -1.638e-2
1.084, -1.623e-2
1.083, -1.609e-2
1.082, -1.594e-2
1.081, -1.580e-2
1.080, -1.566e-2
1.079, -1.552e-2
1.078, -1.538e-2
1.077, -1.524e-2
1.076, -1.510e-2
1.075, -1.496e-2
1.074, -1.482e-2
1.073, -1.469e-2
1.072, -1.455e-2
1.071, -1.441e-2
1.070, -1.428e-2
1.069, -1.415e-2
1.068, -1.401e-2
1.067, -1.388e-2
1.066, -1.375e-2
1.065, -1.362e-2
1.064, -1.349e-2
1.063, -1.336e-2
1.062, -1.323e-2
1.061, -1.310e-2
1.060, -1.297e-2
1.059, -1.284e-2
1.058, -1.271e-2
1.057, -1.259e-2
1.056, -1.246e-2
1.055, -1.233e-2
1.054, -1.221e-2
1.053, -1.208e-2
1.052, -1.196e-2
1.051, -1.184e-2
1.050, -1.171e-2
1.049, -1.159e-2
1.048, -1.147e-2
1.047, -1.135e-2
1.046, -1.123e-2
1.045, -1.111e-2
1.044, -1.099e-2
1.043, -1.087e-2
1.042, -1.075e-2
1.041, -1.063e-2
1.040, -1.052e-2
1.039, -1.040e-2
1.038, -1.028e-2
1.037, -1.017e-2
1.036, -1.005e-2
1.035, -9.934e-3
1.034, -9.819e-3
1.033, -9.706e-3
1.032, -9.592e-3
1.031, -9.479e-3
1.030, -9.366e-3
1.029, -9.253e-3
1.028, -9.141e-3
1.027, -9.030e-3
1.026, -8.919e-3
1.025, -8.808e-3
1.024, -8.698e-3
1.023, -8.588e-3
1.022, -8.478e-3
1.021, -8.369e-3
1.020, -8.261e-3
1.019, -8.154e-3
1.018, -8.047e-3
1.017, -7.940e-3
1.016, -7.833e-3
1.015, -7.726e-3
1.014, -7.620e-3
1.013, -7.515e-3
1.012, -7.410e-3
1.011, -7.306e-3
1.010, -7.202e-3
1.009, -7.098e-3
1.008, -6.995e-3
1.007, -6.891e-3
1.006, -6.789e-3
1.005, -6.687e-3
1.004, -6.586e-3
1.003, -6.485e-3
1.002, -6.385e-3
1.001, -6.285e-3
1.000, -6.184e-3
0.999, -6.084e-3
0.998, -5.985e-3
0.997, -5.886e-3
0.996, -5.787e-3
0.995, -5.690e-3
0.994, -5.592e-3
0.993, -5.495e-3
0.992, -5.397e-3
0.991, -5.300e-3
0.990, -5.204e-3
0.989, -5.109e-3
0.988, -5.014e-3
0.987, -4.919e-3
0.986, -4.825e-3
0.985, -4.731e-3
0.984, -4.637e-3
0.983, -4.542e-3
0.982, -4.450e-3
0.981, -4.357e-3
0.980, -4.265e-3
0.979, -4.172e-3
0.978, -4.080e-3
0.977, -3.990e-3
0.976, -3.899e-3
0.975, -3.807e-3
0.974, -3.717e-3
0.973, -3.626e-3
0.972, -3.537e-3
0.971, -3.448e-3
0.970, -3.360e-3
0.969, -3.272e-3
0.968, -3.184e-3
0.967, -3.096e-3
0.966, -3.007e-3
0.965, -2.920e-3
0.964, -2.833e-3
0.963, -2.747e-3
0.962, -2.661e-3
0.961, -2.575e-3
0.960, -2.490e-3
0.959, -2.405e-3
0.958, -2.320e-3
0.957, -2.235e-3
0.956, -2.150e-3
0.955, -2.067e-3
0.954, -1.984e-3
0.953, -1.901e-3
0.952, -1.819e-3
0.951, -1.736e-3
0.950, -1.654e-3
0.949, -1.573e-3
0.948, -1.491e-3
0.947, -1.409e-3
0.946, -1.328e-3
0.945, -1.248e-3
0.944, -1.168e-3
0.943, -1.088e-3
0.942, -1.008e-3
0.941, -9.289e-4
0.940, -8.503e-4
0.939, -7.720e-4
0.938, -6.929e-4
0.937, -6.146e-4
0.936, -5.371e-4
0.935, -4.598e-4
0.934, -3.832e-4
0.933, -3.075e-4
0.932, -2.314e-4
0.931, -1.553e-4
0.930, -7.992e-5
0.929, -4.710e-6
0.928, 7.091e-5
0.927, 1.469e-4
0.926, 2.212e-4
0.925, 2.952e-4
0.924, 3.690e-4
0.923, 4.424e-4
0.922, 5.162e-4
0.921, 5.902e-4
0.920, 6.628e-4
0.919, 7.350e-4
0.918, 8.071e-4
0.917, 8.792e-4
0.916, 9.514e-4
0.915, 1.023e-3
0.914, 1.094e-3
0.913, 1.164e-3
0.912, 1.234e-3
0.911, 1.303e-3
0.910, 1.373e-3
0.909, 1.442e-3
0.908, 1.511e-3
0.907, 1.579e-3
0.906, 1.649e-3
0.905, 1.718e-3
0.904, 1.785e-3
0.903, 1.853e-3
0.902, 1.920e-3
0.901, 1.988e-3
0.900, 2.054e-3
0.899, 2.120e-3
0.898, 2.187e-3
0.897, 2.253e-3
0.896, 2.318e-3
0.895, 2.384e-3
0.894, 2.449e-3
0.893, 2.515e-3
0.892, 2.579e-3
0.891, 2.643e-3
0.890, 2.707e-3
0.889, 2.771e-3
0.888, 2.833e-3
0.887, 2.896e-3
0.886, 2.959e-3
0.885, 3.021e-3
0.884, 3.084e-3
0.883, 3.145e-3
0.882, 3.207e-3
0.881, 3.270e-3
0.880, 3.331e-3
0.879, 3.392e-3
0.878, 3.452e-3
0.877, 3.512e-3
0.876, 3.573e-3
0.875, 3.632e-3
0.874, 3.692e-3
0.873, 3.751e-3
0.872, 3.809e-3
0.871, 3.868e-3
0.870, 3.927e-3
0.869, 3.985e-3
0.868, 4.044e-3
0.867, 4.102e-3
0.866, 4.159e-3
0.865, 4.215e-3
0.864, 4.272e-3
0.863, 4.329e-3
0.862, 4.385e-3
0.861, 4.440e-3
0.860, 4.496e-3
0.859, 4.551e-3
0.858, 4.606e-3
0.857, 4.660e-3
0.856, 4.715e-3
0.855, 4.770e-3
0.854, 4.824e-3
0.853, 4.878e-3
0.852, 4.932e-3
0.851, 4.985e-3
0.850, 5.038e-3
0.849, 5.091e-3
0.848, 5.143e-3
0.847, 5.196e-3
0.846, 5.247e-3
0.845, 5.299e-3
0.844, 5.351e-3
0.843, 5.402e-3
0.842, 5.453e-3
0.841, 5.503e-3
0.840, 5.554e-3
0.839, 5.605e-3
0.838, 5.655e-3
0.837, 5.704e-3
0.836, 5.754e-3
0.835, 5.802e-3
0.834, 5.851e-3
0.833, 5.900e-3
0.832, 5.947e-3
0.831, 5.995e-3
0.830, 6.043e-3
0.829, 6.090e-3
0.828, 6.137e-3
0.827, 6.184e-3
0.826, 6.231e-3
0.825, 6.278e-3
0.824, 6.324e-3
0.823, 6.371e-3
0.822, 6.417e-3
0.821, 6.462e-3
0.820, 6.508e-3
0.819, 6.555e-3
0.818, 6.600e-3
0.817, 6.644e-3
0.816, 6.689e-3
0.815, 6.733e-3
0.814, 6.776e-3
0.813, 6.820e-3
0.812, 6.863e-3
0.811, 6.906e-3
0.810, 6.949e-3
0.809, 6.991e-3
0.808, 7.033e-3
0.807, 7.075e-3
0.806, 7.117e-3
0.805, 7.160e-3
0.804, 7.201e-3
0.803, 7.242e-3
0.802, 7.283e-3
0.801, 7.323e-3
0.800, 7.364e-3
0.799, 7.404e-3
0.798, 7.444e-3
0.797, 7.483e-3
0.796, 7.522e-3
0.795, 7.560e-3
0.794, 7.600e-3
0.793, 7.639e-3
0.792, 7.677e-3
0.791, 7.715e-3
0.790, 7.753e-3
0.789, 7.790e-3
0.788, 7.828e-3
0.787, 7.865e-3
0.786, 7.902e-3
0.785, 7.940e-3
0.784, 7.977e-3
0.783, 8.013e-3
0.782, 8.049e-3
0.781, 8.085e-3
0.780, 8.120e-3
0.779, 8.155e-3
0.778, 8.190e-3
0.777, 8.225e-3
0.776, 8.260e-3
0.775, 8.295e-3
0.774, 8.328e-3
0.773, 8.363e-3
0.772, 8.397e-3
0.771, 8.430e-3
0.770, 8.463e-3
0.769, 8.496e-3
0.768, 8.529e-3
0.767, 8.562e-3
0.766, 8.595e-3
0.765, 8.627e-3
0.764, 8.659e-3
0.763, 8.690e-3
0.762, 8.723e-3
0.761, 8.755e-3
0.760, 8.786e-3
0.759, 8.817e-3
0.758, 8.848e-3
0.757, 8.878e-3
0.756, 8.908e-3
0.755, 8.938e-3
0.754, 8.968e-3
0.753, 8.998e-3
0.752, 9.027e-3
0.751, 9.056e-3
0.750, 9.085e-3
0.749, 9.113e-3
0.748, 9.141e-3
0.747, 9.170e-3
0.746, 9.198e-3
0.745, 9.226e-3
0.744, 9.254e-3
0.743, 9.281e-3
0.742, 9.308e-3
0.741, 9.336e-3
0.740, 9.363e-3
0.739, 9.390e-3
0.738, 9.416e-3
0.737, 9.443e-3
0.736, 9.469e-3
0.735, 9.496e-3
0.734, 9.522e-3
0.733, 9.548e-3
0.732, 9.573e-3
0.731, 9.598e-3
0.730, 9.624e-3
0.729, 9.648e-3
0.728, 9.673e-3
0.727, 9.697e-3
0.726, 9.721e-3
0.725, 9.746e-3
0.724, 9.770e-3
0.723, 9.793e-3
0.722, 9.817e-3
0.721, 9.840e-3
0.720, 9.864e-3
0.719, 9.886e-3
0.718, 9.909e-3
0.717, 9.933e-3
0.716, 9.956e-3
0.715, 9.978e-3
0.714, 1.000e-2
0.713, 1.002e-2
0.712, 1.004e-2
0.711, 1.007e-2
0.710, 1.009e-2
0.709, 1.011e-2
0.708, 1.013e-2
0.707, 1.015e-2
0.706, 1.017e-2
0.705, 1.019e-2
0.704, 1.021e-2
0.703, 1.023e-2
0.702, 1.025e-2
0.701, 1.027e-2
0.700, 1.029e-2
0.699, 1.031e-2
0.698, 1.033e-2
0.697, 1.035e-2
0.696, 1.037e-2
0.695, 1.039e-2
0.694, 1.041e-2
0.693, 1.043e-2
0.692, 1.045e-2
0.691, 1.047e-2
0.690, 1.048e-2
0.689, 1.050e-2
0.688, 1.052e-2
0.687, 1.054e-2
0.686, 1.056e-2
0.685, 1.057e-2
0.684, 1.059e-2
0.683, 1.061e-2
0.682, 1.063e-2
0.681, 1.064e-2
0.680, 1.066e-2
0.679, 1.067e-2
0.678, 1.069e-2
0.677, 1.071e-2
0.676, 1.072e-2
0.675, 1.074e-2
0.674, 1.076e-2
0.673, 1.077e-2
0.672, 1.079e-2
0.671, 1.080e-2
0.670, 1.082e-2
0.669, 1.084e-2
0.668, 1.085e-2
0.667, 1.087e-2
0.666, 1.088e-2
0.665, 1.090e-2
0.664, 1.091e-2
0.663, 1.093e-2
0.662, 1.094e-2
0.661, 1.096e-2
0.660, 1.097e-2
0.659, 1.098e-2
0.658, 1.100e-2
0.657, 1.101e-2
0.656, 1.103e-2
0.655, 1.104e-2
0.654, 1.105e-2
0.653, 1.107e-2
0.652, 1.108e-2
0.651, 1.110e-2
0.650, 1.111e-2
0.649, 1.112e-2
0.648, 1.114e-2
0.647, 1.115e-2
0.646, 1.116e-2
0.645, 1.118e-2
0.644, 1.119e-2
0.643, 1.120e-2
0.642, 1.121e-2
0.641, 1.123e-2
0.640, 1.124e-2
0.639, 1.125e-2
0.638, 1.126e-2
0.637, 1.128e-2
0.636, 1.129e-2
0.635, 1.130e-2
0.634, 1.131e-2
0.633, 1.132e-2
0.632, 1.134e-2
0.631, 1.135e-2
0.630, 1.136e-2
0.629, 1.137e-2
0.628, 1.138e-2
0.627, 1.139e-2
0.626, 1.141e-2
0.625, 1.142e-2
0.624, 1.143e-2
0.623, 1.144e-2
0.622, 1.145e-2
0.621, 1.146e-2
0.620, 1.147e-2
0.619, 1.148e-2
0.618, 1.149e-2
0.617, 1.150e-2
0.616, 1.152e-2
0.615, 1.153e-2
0.614, 1.154e-2
0.613, 1.155e-2
0.612, 1.156e-2
0.611, 1.157e-2
0.610, 1.158e-2
0.609, 1.159e-2
0.608, 1.160e-2
0.607, 1.161e-2
0.606, 1.162e-2
0.605, 1.163e-2
0.604, 1.164e-2
0.603, 1.165e-2
0.602, 1.166e-2
0.601, 1.167e-2
0.600, 1.168e-2
0.599, 1.169e-2
0.598, 1.170e-2
0.597, 1.171e-2
0.596, 1.172e-2
0.595, 1.173e-2
0.594, 1.174e-2
0.593, 1.175e-2
0.592, 1.176e-2
0.591, 1.177e-2
0.590, 1.178e-2
0.589, 1.179e-2
0.588, 1.180e-2
0.587, 1.181e-2
0.586, 1.182e-2
0.585, 1.182e-2
0.584, 1.183e-2
0.583, 1.184e-2
0.582, 1.185e-2
0.581, 1.186e-2
0.580, 1.187e-2
0.579, 1.188e-2
0.578, 1.189e-2
0.577, 1.190e-2
0.576, 1.191e-2
0.575, 1.192e-2
0.574, 1.193e-2
0.573, 1.194e-2
0.572, 1.195e-2
0.571, 1.195e-2
0.570, 1.196e-2
0.569, 1.197e-2
0.568, 1.198e-2
0.567, 1.199e-2
0.566, 1.200e-2
0.565, 1.201e-2
0.564, 1.202e-2
0.563, 1.203e-2
0.562, 1.204e-2
0.561, 1.204e-2
0.560, 1.205e-2
0.559, 1.206e-2
0.558, 1.207e-2
0.557, 1.208e-2
0.556, 1.209e-2
0.555, 1.210e-2
0.554, 1.211e-2
0.553, 1.212e-2
0.552, 1.212e-2
0.551, 1.213e-2
0.550, 1.214e-2
0.549, 1.215e-2
0.548, 1.216e-2
0.547, 1.217e-2
0.546, 1.218e-2
0.545, 1.218e-2
0.544, 1.219e-2
0.543, 1.220e-2
0.542, 1.221e-2
0.541, 1.222e-2
0.540, 1.223e-2
0.539, 1.224e-2
0.538, 1.224e-2
0.537, 1.225e-2
0.536, 1.226e-2
0.535, 1.227e-2
0.534, 1.228e-2
0.533, 1.229e-2
0.532, 1.230e-2
0.531, 1.231e-2
0.530, 1.231e-2
0.529, 1.232e-2
0.528, 1.233e-2
0.527, 1.234e-2
0.526, 1.235e-2
0.525, 1.236e-2
0.524, 1.237e-2
0.523, 1.237e-2
0.522, 1.238e-2
0.521, 1.239e-2
0.520, 1.240e-2
0.519, 1.241e-2
0.518, 1.242e-2
0.517, 1.243e-2
0.516, 1.243e-2
0.515, 1.244e-2
0.514, 1.245e-2
0.513, 1.246e-2
0.512, 1.247e-2
0.511, 1.248e-2
0.510, 1.249e-2
0.509, 1.250e-2
0.508, 1.251e-2
0.507, 1.251e-2
0.506, 1.252e-2
0.505, 1.253e-2
0.504, 1.254e-2
0.503, 1.255e-2
0.502, 1.256e-2
0.501, 1.257e-2
0.500, 1.257e-2
0.499, 1.258e-2
0.498, 1.259e-2
0.497, 1.260e-2
0.496, 1.261e-2
0.495, 1.262e-2
0.494, 1.263e-2
0.493, 1.264e-2
0.492, 1.265e-2
0.491, 1.265e-2
0.490, 1.266e-2
0.489, 1.267e-2
0.488, 1.268e-2
0.487, 1.269e-2
0.486, 1.270e-2
0.485, 1.271e-2
0.484, 1.272e-2
0.483, 1.273e-2
0.482, 1.273e-2
0.481, 1.274e-2
0.480, 1.275e-2
0.479, 1.276e-2
0.478, 1.277e-2
0.477, 1.278e-2
0.476, 1.279e-2
0.475, 1.280e-2
0.474, 1.281e-2
0.473, 1.281e-2
0.472, 1.282e-2
0.471, 1.283e-2
0.470, 1.284e-2
0.469, 1.285e-2
0.468, 1.286e-2
0.467, 1.287e-2
0.466, 1.288e-2
0.465, 1.289e-2
0.464, 1.290e-2
0.463, 1.290e-2
0.462, 1.291e-2
0.461, 1.292e-2
0.460, 1.293e-2
0.459, 1.294e-2
0.458, 1.295e-2
0.457, 1.296e-2
0.456, 1.297e-2
0.455, 1.298e-2
0.454, 1.299e-2
0.453, 1.300e-2
0.452, 1.301e-2
0.451, 1.302e-2
0.450, 1.302e-2
0.449, 1.303e-2
0.448, 1.304e-2
0.447, 1.305e-2
0.446, 1.306e-2
0.445, 1.307e-2
0.444, 1.308e-2
0.443, 1.309e-2
0.442, 1.310e-2
0.441, 1.311e-2
0.440, 1.312e-2
0.439, 1.313e-2
0.438, 1.314e-2
0.437, 1.315e-2
0.436, 1.315e-2
0.435, 1.316e-2
0.434, 1.317e-2
0.433, 1.318e-2
0.432, 1.319e-2
0.431, 1.320e-2
0.430, 1.321e-2
0.429, 1.322e-2
0.428, 1.323e-2
0.427, 1.324e-2
0.426, 1.325e-2
0.425, 1.326e-2
0.424, 1.327e-2
0.423, 1.328e-2
0.422, 1.329e-2
0.421, 1.330e-2
0.420, 1.331e-2
0.419, 1.331e-2
0.418, 1.332e-2
0.417, 1.333e-2
0.416, 1.334e-2
0.415, 1.335e-2
0.414, 1.336e-2
0.413, 1.337e-2
0.412, 1.338e-2
0.411, 1.339e-2
0.410, 1.340e-2
0.409, 1.341e-2
0.408, 1.342e-2
0.407, 1.343e-2
0.406, 1.344e-2
0.405, 1.345e-2
0.404, 1.346e-2
0.403, 1.347e-2
0.402, 1.348e-2
0.401, 1.349e-2
0.400, 1.350e-2
0.399, 1.351e-2
0.398, 1.352e-2
0.397, 1.353e-2
0.396, 1.354e-2
0.395, 1.355e-2
0.394, 1.356e-2
0.393, 1.357e-2
0.392, 1.358e-2
0.391, 1.359e-2
0.390, 1.360e-2
0.389, 1.360e-2
0.388, 1.362e-2
0.387, 1.362e-2
0.386, 1.363e-2
0.385, 1.364e-2
0.384, 1.365e-2
0.383, 1.366e-2
0.382, 1.367e-2
0.381, 1.368e-2
0.380, 1.369e-2
0.379, 1.370e-2
0.378, 1.371e-2
0.377, 1.372e-2
0.376, 1.373e-2
0.375, 1.374e-2
0.374, 1.375e-2
0.373, 1.376e-2
0.372, 1.377e-2
0.371, 1.378e-2
0.370, 1.379e-2
0.369, 1.380e-2
0.368, 1.381e-2
0.367, 1.382e-2
0.366, 1.383e-2
0.365, 1.384e-2
0.364, 1.385e-2
0.363, 1.386e-2
0.362, 1.387e-2
0.361, 1.388e-2
0.360, 1.389e-2
0.359, 1.390e-2
0.358, 1.391e-2
0.357, 1.392e-2
0.356, 1.393e-2
0.355, 1.394e-2
0.354, 1.395e-2
0.353, 1.396e-2
0.352, 1.397e-2
0.351, 1.398e-2
0.350, 1.399e-2
0.349, 1.400e-2
0.348, 1.402e-2
0.347, 1.403e-2
0.346, 1.404e-2
0.345, 1.405e-2
0.344, 1.406e-2
0.343, 1.407e-2
0.342, 1.408e-2
0.341, 1.409e-2
0.340, 1.410e-2
0.339, 1.411e-2
0.338, 1.412e-2
0.337, 1.413e-2
0.336, 1.414e-2
0.335, 1.415e-2
0.334, 1.416e-2
0.333, 1.417e-2
0.332, 1.418e-2
0.331, 1.419e-2
0.330, 1.420e-2
0.329, 1.421e-2
0.328, 1.422e-2
0.327, 1.424e-2
0.326, 1.425e-2
0.325, 1.426e-2
0.324, 1.427e-2
0.323, 1.428e-2
0.322, 1.429e-2
0.321, 1.430e-2
0.320, 1.431e-2
0.319, 1.432e-2
0.318, 1.433e-2
0.317, 1.434e-2
0.316, 1.435e-2
0.315, 1.436e-2
0.314, 1.437e-2
0.313, 1.438e-2
0.312, 1.439e-2
0.311, 1.441e-2
0.310, 1.442e-2
0.309, 1.443e-2
0.308, 1.444e-2
0.307, 1.445e-2
0.306, 1.446e-2
0.305, 1.447e-2
0.304, 1.448e-2
0.303, 1.449e-2
0.302, 1.450e-2
0.301, 1.451e-2
0.300, 1.452e-2
0.299, 1.453e-2
0.298, 1.455e-2
0.297, 1.456e-2
0.296, 1.457e-2
0.295, 1.458e-2
0.294, 1.459e-2
0.293, 1.460e-2
0.292, 1.461e-2
0.291, 1.462e-2
0.290, 1.463e-2
0.289, 1.464e-2
0.288, 1.465e-2
0.287, 1.466e-2
0.286, 1.467e-2
0.285, 1.468e-2
0.284, 1.469e-2
0.283, 1.471e-2
0.282, 1.472e-2
0.281, 1.473e-2
0.280, 1.474e-2
0.279, 1.475e-2
0.278, 1.476e-2
0.277, 1.477e-2
0.276, 1.478e-2
0.275, 1.479e-2
0.274, 1.480e-2
0.273, 1.481e-2
0.272, 1.482e-2
0.271, 1.483e-2
0.270, 1.484e-2
0.269, 1.485e-2
0.268, 1.486e-2
0.267, 1.487e-2
0.266, 1.488e-2
0.265, 1.489e-2
0.264, 1.490e-2
0.263, 1.492e-2
0.262, 1.493e-2
0.261, 1.494e-2
0.260, 1.495e-2
0.259, 1.496e-2
0.258, 1.497e-2
0.257, 1.498e-2
0.256, 1.499e-2
0.255, 1.500e-2
0.254, 1.501e-2
0.253, 1.502e-2
0.252, 1.503e-2
0.251, 1.504e-2
0.250, 1.505e-2
0.249, 1.506e-2
0.248, 1.507e-2
0.247, 1.508e-2
0.246, 1.509e-2
0.245, 1.510e-2
0.244, 1.511e-2
0.243, 1.512e-2
0.242, 1.513e-2
0.241, 1.514e-2
0.240, 1.515e-2
0.239, 1.516e-2
0.238, 1.517e-2
0.237, 1.518e-2
0.236, 1.519e-2
0.235, 1.520e-2
0.234, 1.521e-2
0.233, 1.522e-2
0.232, 1.523e-2
0.231, 1.524e-2
0.230, 1.525e-2
0.229, 1.526e-2
0.228, 1.527e-2
0.227, 1.528e-2
0.226, 1.529e-2
0.225, 1.530e-2
0.224, 1.531e-2
0.223, 1.532e-2
0.222, 1.533e-2
0.221, 1.534e-2
0.220, 1.535e-2
0.219, 1.536e-2
0.218, 1.537e-2
0.217, 1.537e-2
0.216, 1.538e-2
0.215, 1.539e-2
0.214, 1.540e-2
0.213, 1.541e-2
0.212, 1.542e-2
0.211, 1.543e-2
0.210, 1.544e-2
0.209, 1.545e-2
0.208, 1.546e-2
0.207, 1.547e-2
0.206, 1.548e-2
0.205, 1.549e-2
0.204, 1.550e-2
0.203, 1.551e-2
0.202, 1.552e-2
0.201, 1.553e-2
0.200, 1.554e-2
0.199, 1.554e-2
0.198, 1.555e-2
0.197, 1.556e-2
0.196, 1.557e-2
0.195, 1.558e-2
0.194, 1.559e-2
0.193, 1.560e-2
0.192, 1.561e-2
0.191, 1.562e-2
0.190, 1.563e-2
0.189, 1.564e-2
0.188, 1.564e-2
0.187, 1.565e-2
0.186, 1.566e-2
0.185, 1.567e-2
0.184, 1.568e-2
0.183, 1.569e-2
0.182, 1.570e-2
0.181, 1.571e-2
0.180, 1.572e-2
0.179, 1.572e-2
0.178, 1.573e-2
0.177, 1.574e-2
0.176, 1.575e-2
0.175, 1.576e-2
0.174, 1.577e-2
0.173, 1.578e-2
0.172, 1.578e-2
0.171, 1.579e-2
0.170, 1.580e-2
0.169, 1.581e-2
0.168, 1.582e-2
0.167, 1.583e-2
0.166, 1.584e-2
0.165, 1.584e-2
0.164, 1.585e-2
0.163, 1.586e-2
0.162, 1.587e-2
0.161, 1.588e-2
0.160, 1.588e-2
0.159, 1.589e-2
0.158, 1.590e-2
0.157, 1.591e-2
0.156, 1.592e-2
0.155, 1.592e-2
0.154, 1.593e-2
0.153, 1.594e-2
0.152, 1.595e-2
0.151, 1.596e-2
0.150, 1.596e-2
0.149, 1.597e-2
0.148, 1.598e-2
0.147, 1.599e-2
0.146, 1.599e-2
0.145, 1.600e-2
0.144, 1.601e-2
0.143, 1.602e-2
0.142, 1.602e-2
0.141, 1.603e-2
0.140, 1.604e-2
0.139, 1.604e-2
0.138, 1.605e-2
0.137, 1.606e-2
0.136, 1.607e-2
0.135, 1.607e-2
0.134, 1.608e-2
0.133, 1.609e-2
0.132, 1.609e-2
0.131, 1.610e-2
0.130, 1.611e-2
0.129, 1.612e-2
0.128, 1.612e-2
0.127, 1.613e-2
0.126, 1.614e-2
0.125, 1.614e-2
0.124, 1.615e-2
0.123, 1.615e-2
0.122, 1.616e-2
0.121, 1.617e-2
0.120, 1.617e-2
0.119, 1.618e-2
0.118, 1.619e-2
0.117, 1.619e-2
0.116, 1.620e-2
0.115, 1.620e-2
0.114, 1.621e-2
0.113, 1.621e-2
0.112, 1.622e-2
0.111, 1.623e-2
0.110, 1.623e-2
0.109, 1.624e-2
0.108, 1.624e-2
0.107, 1.625e-2
0.106, 1.625e-2
0.105, 1.626e-2
0.104, 1.626e-2
0.103, 1.627e-2
0.102, 1.627e-2
0.101, 1.628e-2
0.100, 1.628e-2
0.099, 1.629e-2
0.098, 1.629e-2
0.097, 1.630e-2
0.096, 1.630e-2
0.095, 1.631e-2
0.094, 1.631e-2
0.093, 1.632e-2
0.092, 1.632e-2
0.091, 1.632e-2
0.090, 1.633e-2
0.089, 1.633e-2
0.088, 1.634e-2
0.087, 1.634e-2
0.086, 1.635e-2
0.085, 1.635e-2
0.084, 1.635e-2
0.083, 1.636e-2
0.082, 1.636e-2
0.081, 1.636e-2
0.080, 1.637e-2
0.079, 1.637e-2
0.078, 1.637e-2
0.077, 1.638e-2
0.076, 1.638e-2
0.075, 1.638e-2
0.074, 1.639e-2
0.073, 1.639e-2
0.072, 1.639e-2
0.071, 1.640e-2
0.070, 1.640e-2
0.069, 1.640e-2
0.068, 1.641e-2
0.067, 1.641e-2
0.066, 1.641e-2
0.065, 1.641e-2
0.064, 1.642e-2
0.063, 1.642e-2
0.062, 1.642e-2
0.061, 1.642e-2
0.060, 1.642e-2
0.059, 1.643e-2
0.058, 1.643e-2
0.057, 1.643e-2
0.056, 1.643e-2
0.055, 1.644e-2
0.054, 1.644e-2
0.053, 1.644e-2
0.052, 1.644e-2
0.051, 1.644e-2
0.050, 1.645e-2
0.049, 1.645e-2
0.048, 1.645e-2
0.047, 1.645e-2
0.046, 1.645e-2
0.045, 1.645e-2
0.044, 1.645e-2
0.043, 1.645e-2
0.042, 1.646e-2
0.041, 1.646e-2
0.040, 1.646e-2
0.039, 1.646e-2
0.038, 1.646e-2
0.037, 1.646e-2
0.036, 1.646e-2
0.035, 1.646e-2
0.034, 1.646e-2
0.033, 1.646e-2
0.032, 1.646e-2
0.031, 1.647e-2
0.030, 1.647e-2
0.029, 1.647e-2
0.028, 1.647e-2
0.027, 1.647e-2
0.026, 1.647e-2
0.025, 1.647e-2
0.024, 1.647e-2
0.023, 1.647e-2
0.022, 1.647e-2
0.021, 1.647e-2
0.020, 1.647e-2
0.019, 1.647e-2
0.018, 1.647e-2
0.017, 1.647e-2
0.016, 1.647e-2
0.015, 1.647e-2
0.014, 1.647e-2
0.013, 1.647e-2
0.012, 1.647e-2
0.011, 1.647e-2
0.010, 1.647e-2
0.009, 1.647e-2
0.008, 1.647e-2
0.007, 1.647e-2
0.006, 1.647e-2
0.005, 1.647e-2
0.004, 1.647e-2
0.003, 1.647e-2
0.002, 1.647e-2
0.001, 1.647e-2
0.000, 1.648e-2
-0.001, 1.648e-2
-0.002, 1.648e-2
-0.003, 1.648e-2
-0.004, 1.648e-2
-0.005, 1.648e-2
-0.006, 1.648e-2
-0.007, 1.648e-2
-0.008, 1.648e-2
-0.009, 1.648e-2
-0.010, 1.648e-2
-0.011, 1.647e-2
-0.012, 1.647e-2
-0.013, 1.647e-2
-0.014, 1.647e-2
-0.015, 1.647e-2
-0.016, 1.647e-2
-0.017, 1.647e-2
-0.018, 1.647e-2
-0.019, 1.648e-2
-0.020, 1.648e-2
-0.021, 1.648e-2
-0.022, 1.648e-2
-0.023, 1.648e-2
-0.024, 1.648e-2
-0.025, 1.648e-2
-0.026, 1.648e-2
-0.027, 1.648e-2
-0.028, 1.648e-2
-0.029, 1.648e-2
-0.030, 1.648e-2
-0.031, 1.648e-2
-0.032, 1.648e-2
-0.033, 1.648e-2
-0.034, 1.648e-2
-0.035, 1.648e-2
-0.036, 1.648e-2
-0.037, 1.648e-2
-0.038, 1.648e-2
-0.039, 1.648e-2
-0.040, 1.648e-2
-0.041, 1.648e-2
-0.042, 1.648e-2
-0.043, 1.649e-2
-0.044, 1.649e-2
-0.045, 1.649e-2
-0.046, 1.649e-2
-0.047, 1.649e-2
-0.048, 1.649e-2
-0.049, 1.649e-2
-0.050, 1.649e-2
-0.051, 1.649e-2
-0.052, 1.650e-2
-0.053, 1.650e-2
-0.054, 1.650e-2
-0.055, 1.650e-2
-0.056, 1.650e-2
-0.057, 1.650e-2
-0.058, 1.651e-2
-0.059, 1.651e-2
-0.060, 1.651e-2
-0.061, 1.651e-2
-0.062, 1.652e-2
-0.063, 1.652e-2
-0.064, 1.652e-2
-0.065, 1.652e-2
-0.066, 1.652e-2
-0.067, 1.653e-2
-0.068, 1.653e-2
-0.069, 1.653e-2
-0.070, 1.654e-2
-0.071, 1.654e-2
-0.072, 1.654e-2
-0.073, 1.654e-2
-0.074, 1.655e-2
-0.075, 1.655e-2
-0.076, 1.655e-2
-0.077, 1.656e-2
-0.078, 1.656e-2
-0.079, 1.656e-2
-0.080, 1.657e-2
-0.081, 1.657e-2
-0.082, 1.658e-2
-0.083, 1.658e-2
-0.084, 1.658e-2
-0.085, 1.659e-2
-0.086, 1.659e-2
-0.087, 1.660e-2
-0.088, 1.660e-2
-0.089, 1.661e-2
-0.090, 1.661e-2
-0.091, 1.661e-2
-0.092, 1.662e-2
-0.093, 1.662e-2
-0.094, 1.663e-2
-0.095, 1.663e-2
-0.096, 1.664e-2
-0.097, 1.664e-2
-0.098, 1.665e-2
-0.099, 1.665e-2
