Mar. 10, 2025   14:05:01
Cyclic Voltammetry
File: f:\catholicate college\new ruo2\ruo2 scr 0.02 [-0.1-1.1].txt
Data Source:  Experiment
Instrument Model:  CHI6087E
Header: 
Note: 

Init E (V) = -0.1
High E (V) = 1.1
Low E (V) = -0.1
Init P/N = P
Scan Rate (V/s) = 0.02
Segment = 4
Sample Interval (V) = 0.001
Quiet Time (sec) = 2
Sensitivity (A/V) = 0.01

Results:

Channel 1:
Segment 1:

Segment 2:

Segment 3:

Segment 4:

Potential/V, Current/A

-0.100, 1.987e-3
-0.099, 1.921e-3
-0.098, 1.856e-3
-0.097, 1.793e-3
-0.096, 1.732e-3
-0.095, 1.673e-3
-0.094, 1.614e-3
-0.093, 1.558e-3
-0.092, 1.503e-3
-0.091, 1.450e-3
-0.090, 1.397e-3
-0.089, 1.345e-3
-0.088, 1.295e-3
-0.087, 1.246e-3
-0.086, 1.198e-3
-0.085, 1.150e-3
-0.084, 1.103e-3
-0.083, 1.057e-3
-0.082, 1.011e-3
-0.081, 9.663e-4
-0.080, 9.225e-4
-0.079, 8.785e-4
-0.078, 8.352e-4
-0.077, 7.931e-4
-0.076, 7.514e-4
-0.075, 7.106e-4
-0.074, 6.705e-4
-0.073, 6.307e-4
-0.072, 5.915e-4
-0.071, 5.528e-4
-0.070, 5.142e-4
-0.069, 4.765e-4
-0.068, 4.392e-4
-0.067, 4.027e-4
-0.066, 3.663e-4
-0.065, 3.303e-4
-0.064, 2.951e-4
-0.063, 2.601e-4
-0.062, 2.255e-4
-0.061, 1.912e-4
-0.060, 1.574e-4
-0.059, 1.240e-4
-0.058, 9.010e-5
-0.057, 5.653e-5
-0.056, 2.444e-5
-0.055, -7.762e-6
-0.054, -3.937e-5
-0.053, -7.055e-5
-0.052, -1.015e-4
-0.051, -1.320e-4
-0.050, -1.626e-4
-0.049, -1.928e-4
-0.048, -2.222e-4
-0.047, -2.519e-4
-0.046, -2.811e-4
-0.045, -3.097e-4
-0.044, -3.371e-4
-0.043, -3.653e-4
-0.042, -3.933e-4
-0.041, -4.212e-4
-0.040, -4.485e-4
-0.039, -4.759e-4
-0.038, -5.024e-4
-0.037, -5.289e-4
-0.036, -5.556e-4
-0.035, -5.814e-4
-0.034, -6.076e-4
-0.033, -6.332e-4
-0.032, -6.588e-4
-0.031, -6.843e-4
-0.030, -7.100e-4
-0.029, -7.347e-4
-0.028, -7.594e-4
-0.027, -7.835e-4
-0.026, -8.079e-4
-0.025, -8.319e-4
-0.024, -8.555e-4
-0.023, -8.787e-4
-0.022, -9.016e-4
-0.021, -9.244e-4
-0.020, -9.474e-4
-0.019, -9.701e-4
-0.018, -9.926e-4
-0.017, -1.015e-3
-0.016, -1.036e-3
-0.015, -1.059e-3
-0.014, -1.080e-3
-0.013, -1.102e-3
-0.012, -1.123e-3
-0.011, -1.143e-3
-0.010, -1.164e-3
-0.009, -1.185e-3
-0.008, -1.205e-3
-0.007, -1.226e-3
-0.006, -1.246e-3
-0.005, -1.266e-3
-0.004, -1.286e-3
-0.003, -1.305e-3
-0.002, -1.324e-3
-0.001, -1.344e-3
-0.000, -1.364e-3
0.001, -1.383e-3
0.002, -1.401e-3
0.003, -1.420e-3
0.004, -1.439e-3
0.005, -1.457e-3
0.006, -1.475e-3
0.007, -1.494e-3
0.008, -1.512e-3
0.009, -1.530e-3
0.010, -1.547e-3
0.011, -1.564e-3
0.012, -1.582e-3
0.013, -1.599e-3
0.014, -1.616e-3
0.015, -1.632e-3
0.016, -1.649e-3
0.017, -1.665e-3
0.018, -1.682e-3
0.019, -1.698e-3
0.020, -1.714e-3
0.021, -1.730e-3
0.022, -1.746e-3
0.023, -1.761e-3
0.024, -1.777e-3
0.025, -1.792e-3
0.026, -1.807e-3
0.027, -1.823e-3
0.028, -1.838e-3
0.029, -1.853e-3
0.030, -1.867e-3
0.031, -1.881e-3
0.032, -1.895e-3
0.033, -1.910e-3
0.034, -1.924e-3
0.035, -1.938e-3
0.036, -1.952e-3
0.037, -1.966e-3
0.038, -1.980e-3
0.039, -1.994e-3
0.040, -2.007e-3
0.041, -2.021e-3
0.042, -2.034e-3
0.043, -2.048e-3
0.044, -2.061e-3
0.045, -2.074e-3
0.046, -2.087e-3
0.047, -2.099e-3
0.048, -2.112e-3
0.049, -2.125e-3
0.050, -2.137e-3
0.051, -2.150e-3
0.052, -2.162e-3
0.053, -2.174e-3
0.054, -2.187e-3
0.055, -2.198e-3
0.056, -2.210e-3
0.057, -2.222e-3
0.058, -2.234e-3
0.059, -2.246e-3
0.060, -2.257e-3
0.061, -2.269e-3
0.062, -2.281e-3
0.063, -2.292e-3
0.064, -2.303e-3
0.065, -2.314e-3
0.066, -2.325e-3
0.067, -2.336e-3
0.068, -2.347e-3
0.069, -2.358e-3
0.070, -2.369e-3
0.071, -2.379e-3
0.072, -2.390e-3
0.073, -2.400e-3
0.074, -2.411e-3
0.075, -2.421e-3
0.076, -2.431e-3
0.077, -2.441e-3
0.078, -2.451e-3
0.079, -2.461e-3
0.080, -2.470e-3
0.081, -2.480e-3
0.082, -2.490e-3
0.083, -2.500e-3
0.084, -2.510e-3
0.085, -2.519e-3
0.086, -2.528e-3
0.087, -2.538e-3
0.088, -2.547e-3
0.089, -2.556e-3
0.090, -2.565e-3
0.091, -2.574e-3
0.092, -2.583e-3
0.093, -2.592e-3
0.094, -2.601e-3
0.095, -2.610e-3
0.096, -2.619e-3
0.097, -2.628e-3
0.098, -2.636e-3
0.099, -2.645e-3
0.100, -2.653e-3
0.101, -2.662e-3
0.102, -2.670e-3
0.103, -2.679e-3
0.104, -2.687e-3
0.105, -2.695e-3
0.106, -2.703e-3
0.107, -2.711e-3
0.108, -2.719e-3
0.109, -2.727e-3
0.110, -2.735e-3
0.111, -2.743e-3
0.112, -2.750e-3
0.113, -2.758e-3
0.114, -2.766e-3
0.115, -2.773e-3
0.116, -2.781e-3
0.117, -2.788e-3
0.118, -2.796e-3
0.119, -2.803e-3
0.120, -2.811e-3
0.121, -2.819e-3
0.122, -2.826e-3
0.123, -2.833e-3
0.124, -2.840e-3
0.125, -2.847e-3
0.126, -2.854e-3
0.127, -2.860e-3
0.128, -2.867e-3
0.129, -2.874e-3
0.130, -2.880e-3
0.131, -2.887e-3
0.132, -2.893e-3
0.133, -2.900e-3
0.134, -2.906e-3
0.135, -2.913e-3
0.136, -2.919e-3
0.137, -2.925e-3
0.138, -2.931e-3
0.139, -2.937e-3
0.140, -2.944e-3
0.141, -2.950e-3
0.142, -2.957e-3
0.143, -2.963e-3
0.144, -2.968e-3
0.145, -2.975e-3
0.146, -2.980e-3
0.147, -2.987e-3
0.148, -2.993e-3
0.149, -2.998e-3
0.150, -3.005e-3
0.151, -3.010e-3
0.152, -3.016e-3
0.153, -3.022e-3
0.154, -3.028e-3
0.155, -3.034e-3
0.156, -3.040e-3
0.157, -3.045e-3
0.158, -3.051e-3
0.159, -3.057e-3
0.160, -3.063e-3
0.161, -3.068e-3
0.162, -3.074e-3
0.163, -3.079e-3
0.164, -3.085e-3
0.165, -3.090e-3
0.166, -3.095e-3
0.167, -3.100e-3
0.168, -3.105e-3
0.169, -3.111e-3
0.170, -3.116e-3
0.171, -3.121e-3
0.172, -3.127e-3
0.173, -3.132e-3
0.174, -3.137e-3
0.175, -3.142e-3
0.176, -3.147e-3
0.177, -3.152e-3
0.178, -3.157e-3
0.179, -3.162e-3
0.180, -3.168e-3
0.181, -3.172e-3
0.182, -3.177e-3
0.183, -3.182e-3
0.184, -3.187e-3
0.185, -3.192e-3
0.186, -3.197e-3
0.187, -3.201e-3
0.188, -3.206e-3
0.189, -3.211e-3
0.190, -3.215e-3
0.191, -3.220e-3
0.192, -3.225e-3
0.193, -3.230e-3
0.194, -3.234e-3
0.195, -3.239e-3
0.196, -3.243e-3
0.197, -3.248e-3
0.198, -3.252e-3
0.199, -3.257e-3
0.200, -3.262e-3
0.201, -3.266e-3
0.202, -3.271e-3
0.203, -3.275e-3
0.204, -3.280e-3
0.205, -3.285e-3
0.206, -3.289e-3
0.207, -3.294e-3
0.208, -3.298e-3
0.209, -3.303e-3
0.210, -3.307e-3
0.211, -3.312e-3
0.212, -3.316e-3
0.213, -3.320e-3
0.214, -3.325e-3
0.215, -3.329e-3
0.216, -3.333e-3
0.217, -3.338e-3
0.218, -3.342e-3
0.219, -3.346e-3
0.220, -3.351e-3
0.221, -3.355e-3
0.222, -3.359e-3
0.223, -3.363e-3
0.224, -3.367e-3
0.225, -3.372e-3
0.226, -3.376e-3
0.227, -3.380e-3
0.228, -3.384e-3
0.229, -3.389e-3
0.230, -3.393e-3
0.231, -3.398e-3
0.232, -3.402e-3
0.233, -3.406e-3
0.234, -3.410e-3
0.235, -3.415e-3
0.236, -3.419e-3
0.237, -3.423e-3
0.238, -3.428e-3
0.239, -3.432e-3
0.240, -3.436e-3
0.241, -3.441e-3
0.242, -3.445e-3
0.243, -3.448e-3
0.244, -3.452e-3
0.245, -3.456e-3
0.246, -3.460e-3
0.247, -3.464e-3
0.248, -3.468e-3
0.249, -3.472e-3
0.250, -3.477e-3
0.251, -3.481e-3
0.252, -3.485e-3
0.253, -3.489e-3
0.254, -3.493e-3
0.255, -3.497e-3
0.256, -3.502e-3
0.257, -3.506e-3
0.258, -3.510e-3
0.259, -3.515e-3
0.260, -3.519e-3
0.261, -3.523e-3
0.262, -3.527e-3
0.263, -3.532e-3
0.264, -3.536e-3
0.265, -3.541e-3
0.266, -3.545e-3
0.267, -3.549e-3
0.268, -3.553e-3
0.269, -3.557e-3
0.270, -3.561e-3
0.271, -3.565e-3
0.272, -3.569e-3
0.273, -3.573e-3
0.274, -3.578e-3
0.275, -3.582e-3
0.276, -3.587e-3
0.277, -3.591e-3
0.278, -3.596e-3
0.279, -3.600e-3
0.280, -3.604e-3
0.281, -3.608e-3
0.282, -3.613e-3
0.283, -3.617e-3
0.284, -3.622e-3
0.285, -3.626e-3
0.286, -3.630e-3
0.287, -3.636e-3
0.288, -3.640e-3
0.289, -3.645e-3
0.290, -3.650e-3
0.291, -3.654e-3
0.292, -3.659e-3
0.293, -3.663e-3
0.294, -3.668e-3
0.295, -3.673e-3
0.296, -3.677e-3
0.297, -3.682e-3
0.298, -3.687e-3
0.299, -3.692e-3
0.300, -3.697e-3
0.301, -3.702e-3
0.302, -3.707e-3
0.303, -3.712e-3
0.304, -3.716e-3
0.305, -3.722e-3
0.306, -3.727e-3
0.307, -3.732e-3
0.308, -3.737e-3
0.309, -3.742e-3
0.310, -3.747e-3
0.311, -3.751e-3
0.312, -3.756e-3
0.313, -3.761e-3
0.314, -3.767e-3
0.315, -3.772e-3
0.316, -3.778e-3
0.317, -3.783e-3
0.318, -3.788e-3
0.319, -3.794e-3
0.320, -3.800e-3
0.321, -3.805e-3
0.322, -3.811e-3
0.323, -3.816e-3
0.324, -3.821e-3
0.325, -3.827e-3
0.326, -3.832e-3
0.327, -3.838e-3
0.328, -3.844e-3
0.329, -3.850e-3
0.330, -3.855e-3
0.331, -3.861e-3
0.332, -3.866e-3
0.333, -3.872e-3
0.334, -3.877e-3
0.335, -3.883e-3
0.336, -3.889e-3
0.337, -3.894e-3
0.338, -3.900e-3
0.339, -3.906e-3
0.340, -3.912e-3
0.341, -3.918e-3
0.342, -3.924e-3
0.343, -3.931e-3
0.344, -3.937e-3
0.345, -3.943e-3
0.346, -3.950e-3
0.347, -3.956e-3
0.348, -3.962e-3
0.349, -3.969e-3
0.350, -3.975e-3
0.351, -3.982e-3
0.352, -3.988e-3
0.353, -3.995e-3
0.354, -4.001e-3
0.355, -4.007e-3
0.356, -4.014e-3
0.357, -4.020e-3
0.358, -4.027e-3
0.359, -4.033e-3
0.360, -4.040e-3
0.361, -4.046e-3
0.362, -4.053e-3
0.363, -4.060e-3
0.364, -4.067e-3
0.365, -4.073e-3
0.366, -4.080e-3
0.367, -4.087e-3
0.368, -4.093e-3
0.369, -4.100e-3
0.370, -4.107e-3
0.371, -4.114e-3
0.372, -4.120e-3
0.373, -4.126e-3
0.374, -4.133e-3
0.375, -4.140e-3
0.376, -4.146e-3
0.377, -4.153e-3
0.378, -4.160e-3
0.379, -4.167e-3
0.380, -4.174e-3
0.381, -4.181e-3
0.382, -4.187e-3
0.383, -4.194e-3
0.384, -4.202e-3
0.385, -4.209e-3
0.386, -4.216e-3
0.387, -4.223e-3
0.388, -4.230e-3
0.389, -4.237e-3
0.390, -4.244e-3
0.391, -4.251e-3
0.392, -4.258e-3
0.393, -4.265e-3
0.394, -4.272e-3
0.395, -4.279e-3
0.396, -4.286e-3
0.397, -4.293e-3
0.398, -4.301e-3
0.399, -4.307e-3
0.400, -4.314e-3
0.401, -4.321e-3
0.402, -4.328e-3
0.403, -4.335e-3
0.404, -4.342e-3
0.405, -4.350e-3
0.406, -4.357e-3
0.407, -4.364e-3
0.408, -4.372e-3
0.409, -4.379e-3
0.410, -4.387e-3
0.411, -4.395e-3
0.412, -4.402e-3
0.413, -4.409e-3
0.414, -4.417e-3
0.415, -4.424e-3
0.416, -4.431e-3
0.417, -4.439e-3
0.418, -4.446e-3
0.419, -4.453e-3
0.420, -4.461e-3
0.421, -4.468e-3
0.422, -4.476e-3
0.423, -4.483e-3
0.424, -4.489e-3
0.425, -4.497e-3
0.426, -4.504e-3
0.427, -4.512e-3
0.428, -4.520e-3
0.429, -4.527e-3
0.430, -4.534e-3
0.431, -4.541e-3
0.432, -4.548e-3
0.433, -4.555e-3
0.434, -4.562e-3
0.435, -4.569e-3
0.436, -4.574e-3
0.437, -4.579e-3
0.438, -4.585e-3
0.439, -4.592e-3
0.440, -4.598e-3
0.441, -4.605e-3
0.442, -4.613e-3
0.443, -4.620e-3
0.444, -4.627e-3
0.445, -4.634e-3
0.446, -4.641e-3
0.447, -4.648e-3
0.448, -4.655e-3
0.449, -4.662e-3
0.450, -4.668e-3
0.451, -4.675e-3
0.452, -4.682e-3
0.453, -4.688e-3
0.454, -4.695e-3
0.455, -4.702e-3
0.456, -4.709e-3
0.457, -4.716e-3
0.458, -4.722e-3
0.459, -4.729e-3
0.460, -4.735e-3
0.461, -4.741e-3
0.462, -4.748e-3
0.463, -4.754e-3
0.464, -4.760e-3
0.465, -4.766e-3
0.466, -4.773e-3
0.467, -4.779e-3
0.468, -4.785e-3
0.469, -4.791e-3
0.470, -4.798e-3
0.471, -4.804e-3
0.472, -4.811e-3
0.473, -4.817e-3
0.474, -4.823e-3
0.475, -4.830e-3
0.476, -4.836e-3
0.477, -4.843e-3
0.478, -4.849e-3
0.479, -4.856e-3
0.480, -4.861e-3
0.481, -4.868e-3
0.482, -4.874e-3
0.483, -4.880e-3
0.484, -4.887e-3
0.485, -4.892e-3
0.486, -4.898e-3
0.487, -4.904e-3
0.488, -4.910e-3
0.489, -4.915e-3
0.490, -4.920e-3
0.491, -4.926e-3
0.492, -4.932e-3
0.493, -4.937e-3
0.494, -4.943e-3
0.495, -4.948e-3
0.496, -4.953e-3
0.497, -4.959e-3
0.498, -4.965e-3
0.499, -4.971e-3
0.500, -4.976e-3
0.501, -4.981e-3
0.502, -4.987e-3
0.503, -4.992e-3
0.504, -4.997e-3
0.505, -5.003e-3
0.506, -5.008e-3
0.507, -5.013e-3
0.508, -5.018e-3
0.509, -5.023e-3
0.510, -5.028e-3
0.511, -5.033e-3
0.512, -5.039e-3
0.513, -5.044e-3
0.514, -5.049e-3
0.515, -5.054e-3
0.516, -5.060e-3
0.517, -5.064e-3
0.518, -5.069e-3
0.519, -5.074e-3
0.520, -5.079e-3
0.521, -5.084e-3
0.522, -5.088e-3
0.523, -5.093e-3
0.524, -5.097e-3
0.525, -5.101e-3
0.526, -5.106e-3
0.527, -5.111e-3
0.528, -5.115e-3
0.529, -5.120e-3
0.530, -5.124e-3
0.531, -5.129e-3
0.532, -5.134e-3
0.533, -5.138e-3
0.534, -5.142e-3
0.535, -5.146e-3
0.536, -5.151e-3
0.537, -5.156e-3
0.538, -5.160e-3
0.539, -5.164e-3
0.540, -5.168e-3
0.541, -5.173e-3
0.542, -5.177e-3
0.543, -5.182e-3
0.544, -5.187e-3
0.545, -5.191e-3
0.546, -5.195e-3
0.547, -5.199e-3
0.548, -5.203e-3
0.549, -5.206e-3
0.550, -5.211e-3
0.551, -5.215e-3
0.552, -5.218e-3
0.553, -5.222e-3
0.554, -5.225e-3
0.555, -5.229e-3
0.556, -5.233e-3
0.557, -5.237e-3
0.558, -5.240e-3
0.559, -5.244e-3
0.560, -5.248e-3
0.561, -5.252e-3
0.562, -5.256e-3
0.563, -5.260e-3
0.564, -5.264e-3
0.565, -5.268e-3
0.566, -5.272e-3
0.567, -5.276e-3
0.568, -5.280e-3
0.569, -5.283e-3
0.570, -5.287e-3
0.571, -5.290e-3
0.572, -5.294e-3
0.573, -5.296e-3
0.574, -5.299e-3
0.575, -5.302e-3
0.576, -5.305e-3
0.577, -5.308e-3
0.578, -5.310e-3
0.579, -5.313e-3
0.580, -5.316e-3
0.581, -5.318e-3
0.582, -5.322e-3
0.583, -5.324e-3
0.584, -5.327e-3
0.585, -5.330e-3
0.586, -5.334e-3
0.587, -5.336e-3
0.588, -5.340e-3
0.589, -5.343e-3
0.590, -5.346e-3
0.591, -5.349e-3
0.592, -5.352e-3
0.593, -5.354e-3
0.594, -5.357e-3
0.595, -5.360e-3
0.596, -5.362e-3
0.597, -5.364e-3
0.598, -5.367e-3
0.599, -5.370e-3
0.600, -5.372e-3
0.601, -5.374e-3
0.602, -5.376e-3
0.603, -5.378e-3
0.604, -5.381e-3
0.605, -5.383e-3
0.606, -5.385e-3
0.607, -5.387e-3
0.608, -5.389e-3
0.609, -5.392e-3
0.610, -5.394e-3
0.611, -5.396e-3
0.612, -5.398e-3
0.613, -5.401e-3
0.614, -5.404e-3
0.615, -5.406e-3
0.616, -5.408e-3
0.617, -5.410e-3
0.618, -5.412e-3
0.619, -5.413e-3
0.620, -5.415e-3
0.621, -5.417e-3
0.622, -5.419e-3
0.623, -5.420e-3
0.624, -5.421e-3
0.625, -5.423e-3
0.626, -5.424e-3
0.627, -5.426e-3
0.628, -5.427e-3
0.629, -5.429e-3
0.630, -5.430e-3
0.631, -5.431e-3
0.632, -5.433e-3
0.633, -5.435e-3
0.634, -5.437e-3
0.635, -5.438e-3
0.636, -5.441e-3
0.637, -5.442e-3
0.638, -5.443e-3
0.639, -5.445e-3
0.640, -5.447e-3
0.641, -5.449e-3
0.642, -5.450e-3
0.643, -5.452e-3
0.644, -5.454e-3
0.645, -5.456e-3
0.646, -5.458e-3
0.647, -5.459e-3
0.648, -5.460e-3
0.649, -5.462e-3
0.650, -5.463e-3
0.651, -5.465e-3
0.652, -5.467e-3
0.653, -5.468e-3
0.654, -5.469e-3
0.655, -5.471e-3
0.656, -5.471e-3
0.657, -5.473e-3
0.658, -5.474e-3
0.659, -5.475e-3
0.660, -5.477e-3
0.661, -5.477e-3
0.662, -5.478e-3
0.663, -5.480e-3
0.664, -5.481e-3
0.665, -5.482e-3
0.666, -5.484e-3
0.667, -5.485e-3
0.668, -5.486e-3
0.669, -5.486e-3
0.670, -5.487e-3
0.671, -5.488e-3
0.672, -5.490e-3
0.673, -5.491e-3
0.674, -5.492e-3
0.675, -5.493e-3
0.676, -5.494e-3
0.677, -5.495e-3
0.678, -5.496e-3
0.679, -5.497e-3
0.680, -5.498e-3
0.681, -5.499e-3
0.682, -5.500e-3
0.683, -5.500e-3
0.684, -5.501e-3
0.685, -5.502e-3
0.686, -5.502e-3
0.687, -5.503e-3
0.688, -5.504e-3
0.689, -5.504e-3
0.690, -5.505e-3
0.691, -5.505e-3
0.692, -5.505e-3
0.693, -5.505e-3
0.694, -5.505e-3
0.695, -5.505e-3
0.696, -5.504e-3
0.697, -5.504e-3
0.698, -5.504e-3
0.699, -5.504e-3
0.700, -5.504e-3
0.701, -5.503e-3
0.702, -5.503e-3
0.703, -5.503e-3
0.704, -5.503e-3
0.705, -5.503e-3
0.706, -5.503e-3
0.707, -5.503e-3
0.708, -5.503e-3
0.709, -5.503e-3
0.710, -5.503e-3
0.711, -5.503e-3
0.712, -5.503e-3
0.713, -5.503e-3
0.714, -5.503e-3
0.715, -5.503e-3
0.716, -5.502e-3
0.717, -5.503e-3
0.718, -5.502e-3
0.719, -5.501e-3
0.720, -5.501e-3
0.721, -5.500e-3
0.722, -5.500e-3
0.723, -5.500e-3
0.724, -5.499e-3
0.725, -5.499e-3
0.726, -5.499e-3
0.727, -5.498e-3
0.728, -5.498e-3
0.729, -5.498e-3
0.730, -5.497e-3
0.731, -5.497e-3
0.732, -5.497e-3
0.733, -5.496e-3
0.734, -5.495e-3
0.735, -5.495e-3
0.736, -5.495e-3
0.737, -5.496e-3
0.738, -5.497e-3
0.739, -5.496e-3
0.740, -5.495e-3
0.741, -5.495e-3
0.742, -5.494e-3
0.743, -5.494e-3
0.744, -5.493e-3
0.745, -5.493e-3
0.746, -5.493e-3
0.747, -5.492e-3
0.748, -5.491e-3
0.749, -5.491e-3
0.750, -5.491e-3
0.751, -5.490e-3
0.752, -5.488e-3
0.753, -5.487e-3
0.754, -5.487e-3
0.755, -5.486e-3
0.756, -5.485e-3
0.757, -5.484e-3
0.758, -5.484e-3
0.759, -5.484e-3
0.760, -5.483e-3
0.761, -5.482e-3
0.762, -5.482e-3
0.763, -5.481e-3
0.764, -5.480e-3
0.765, -5.480e-3
0.766, -5.480e-3
0.767, -5.481e-3
0.768, -5.481e-3
0.769, -5.481e-3
0.770, -5.480e-3
0.771, -5.480e-3
0.772, -5.480e-3
0.773, -5.479e-3
0.774, -5.479e-3
0.775, -5.477e-3
0.776, -5.476e-3
0.777, -5.476e-3
0.778, -5.476e-3
0.779, -5.476e-3
0.780, -5.476e-3
0.781, -5.476e-3
0.782, -5.477e-3
0.783, -5.477e-3
0.784, -5.477e-3
0.785, -5.478e-3
0.786, -5.478e-3
0.787, -5.478e-3
0.788, -5.478e-3
0.789, -5.477e-3
0.790, -5.476e-3
0.791, -5.475e-3
0.792, -5.475e-3
0.793, -5.475e-3
0.794, -5.475e-3
0.795, -5.475e-3
0.796, -5.474e-3
0.797, -5.473e-3
0.798, -5.472e-3
0.799, -5.471e-3
0.800, -5.471e-3
0.801, -5.471e-3
0.802, -5.471e-3
0.803, -5.470e-3
0.804, -5.470e-3
0.805, -5.469e-3
0.806, -5.469e-3
0.807, -5.469e-3
0.808, -5.469e-3
0.809, -5.469e-3
0.810, -5.469e-3
0.811, -5.469e-3
0.812, -5.468e-3
0.813, -5.469e-3
0.814, -5.468e-3
0.815, -5.468e-3
0.816, -5.467e-3
0.817, -5.467e-3
0.818, -5.468e-3
0.819, -5.469e-3
0.820, -5.469e-3
0.821, -5.468e-3
0.822, -5.467e-3
0.823, -5.467e-3
0.824, -5.467e-3
0.825, -5.466e-3
0.826, -5.466e-3
0.827, -5.466e-3
0.828, -5.466e-3
0.829, -5.466e-3
0.830, -5.466e-3
0.831, -5.466e-3
0.832, -5.464e-3
0.833, -5.463e-3
0.834, -5.463e-3
0.835, -5.462e-3
0.836, -5.462e-3
0.837, -5.461e-3
0.838, -5.462e-3
0.839, -5.461e-3
0.840, -5.461e-3
0.841, -5.461e-3
0.842, -5.461e-3
0.843, -5.461e-3
0.844, -5.461e-3
0.845, -5.462e-3
0.846, -5.463e-3
0.847, -5.463e-3
0.848, -5.464e-3
0.849, -5.464e-3
0.850, -5.465e-3
0.851, -5.466e-3
0.852, -5.466e-3
0.853, -5.467e-3
0.854, -5.468e-3
0.855, -5.468e-3
0.856, -5.468e-3
0.857, -5.468e-3
0.858, -5.468e-3
0.859, -5.469e-3
0.860, -5.469e-3
0.861, -5.470e-3
0.862, -5.470e-3
0.863, -5.471e-3
0.864, -5.472e-3
0.865, -5.472e-3
0.866, -5.471e-3
0.867, -5.471e-3
0.868, -5.471e-3
0.869, -5.471e-3
0.870, -5.472e-3
0.871, -5.472e-3
0.872, -5.472e-3
0.873, -5.472e-3
0.874, -5.472e-3
0.875, -5.471e-3
0.876, -5.471e-3
0.877, -5.472e-3
0.878, -5.471e-3
0.879, -5.473e-3
0.880, -5.474e-3
0.881, -5.475e-3
0.882, -5.475e-3
0.883, -5.477e-3
0.884, -5.478e-3
0.885, -5.479e-3
0.886, -5.480e-3
0.887, -5.482e-3
0.888, -5.483e-3
0.889, -5.484e-3
0.890, -5.486e-3
0.891, -5.488e-3
0.892, -5.489e-3
0.893, -5.490e-3
0.894, -5.490e-3
0.895, -5.491e-3
0.896, -5.492e-3
0.897, -5.493e-3
0.898, -5.494e-3
0.899, -5.496e-3
0.900, -5.497e-3
0.901, -5.498e-3
0.902, -5.500e-3
0.903, -5.502e-3
0.904, -5.504e-3
0.905, -5.506e-3
0.906, -5.507e-3
0.907, -5.508e-3
0.908, -5.510e-3
0.909, -5.511e-3
0.910, -5.512e-3
0.911, -5.515e-3
0.912, -5.517e-3
0.913, -5.519e-3
0.914, -5.521e-3
0.915, -5.523e-3
0.916, -5.525e-3
0.917, -5.527e-3
0.918, -5.528e-3
0.919, -5.530e-3
0.920, -5.532e-3
0.921, -5.534e-3
0.922, -5.538e-3
0.923, -5.539e-3
0.924, -5.542e-3
0.925, -5.544e-3
0.926, -5.545e-3
0.927, -5.546e-3
0.928, -5.548e-3
0.929, -5.550e-3
0.930, -5.553e-3
0.931, -5.556e-3
0.932, -5.558e-3
0.933, -5.561e-3
0.934, -5.563e-3
0.935, -5.564e-3
0.936, -5.566e-3
0.937, -5.568e-3
0.938, -5.570e-3
0.939, -5.573e-3
0.940, -5.575e-3
0.941, -5.577e-3
0.942, -5.579e-3
0.943, -5.582e-3
0.944, -5.584e-3
0.945, -5.586e-3
0.946, -5.587e-3
0.947, -5.589e-3
0.948, -5.592e-3
0.949, -5.594e-3
0.950, -5.597e-3
0.951, -5.600e-3
0.952, -5.602e-3
0.953, -5.603e-3
0.954, -5.605e-3
0.955, -5.606e-3
0.956, -5.609e-3
0.957, -5.611e-3
0.958, -5.613e-3
0.959, -5.616e-3
0.960, -5.618e-3
0.961, -5.621e-3
0.962, -5.623e-3
0.963, -5.625e-3
0.964, -5.628e-3
0.965, -5.630e-3
0.966, -5.632e-3
0.967, -5.633e-3
0.968, -5.635e-3
0.969, -5.637e-3
0.970, -5.640e-3
0.971, -5.643e-3
0.972, -5.646e-3
0.973, -5.649e-3
0.974, -5.651e-3
0.975, -5.654e-3
0.976, -5.656e-3
0.977, -5.659e-3
0.978, -5.661e-3
0.979, -5.664e-3
0.980, -5.667e-3
0.981, -5.670e-3
0.982, -5.673e-3
0.983, -5.675e-3
0.984, -5.679e-3
0.985, -5.681e-3
0.986, -5.684e-3
0.987, -5.688e-3
0.988, -5.690e-3
0.989, -5.693e-3
0.990, -5.696e-3
0.991, -5.699e-3
0.992, -5.702e-3
0.993, -5.706e-3
0.994, -5.709e-3
0.995, -5.712e-3
0.996, -5.715e-3
0.997, -5.718e-3
0.998, -5.721e-3
0.999, -5.724e-3
1.000, -5.727e-3
1.001, -5.731e-3
1.002, -5.734e-3
1.003, -5.738e-3
1.004, -5.742e-3
1.005, -5.747e-3
1.006, -5.750e-3
1.007, -5.754e-3
1.008, -5.757e-3
1.009, -5.760e-3
1.010, -5.763e-3
1.011, -5.767e-3
1.012, -5.770e-3
1.013, -5.774e-3
1.014, -5.777e-3
1.015, -5.780e-3
1.016, -5.784e-3
1.017, -5.788e-3
1.018, -5.793e-3
1.019, -5.797e-3
1.020, -5.800e-3
1.021, -5.803e-3
1.022, -5.807e-3
1.023, -5.811e-3
1.024, -5.815e-3
1.025, -5.819e-3
1.026, -5.823e-3
1.027, -5.827e-3
1.028, -5.830e-3
1.029, -5.834e-3
1.030, -5.838e-3
1.031, -5.843e-3
1.032, -5.847e-3
1.033, -5.851e-3
1.034, -5.856e-3
1.035, -5.859e-3
1.036, -5.864e-3
1.037, -5.868e-3
1.038, -5.873e-3
1.039, -5.877e-3
1.040, -5.881e-3
1.041, -5.886e-3
1.042, -5.890e-3
1.043, -5.895e-3
1.044, -5.900e-3
1.045, -5.904e-3
1.046, -5.909e-3
1.047, -5.913e-3
1.048, -5.918e-3
1.049, -5.923e-3
1.050, -5.928e-3
1.051, -5.932e-3
1.052, -5.937e-3
1.053, -5.941e-3
1.054, -5.946e-3
1.055, -5.950e-3
1.056, -5.955e-3
1.057, -5.960e-3
1.058, -5.964e-3
1.059, -5.969e-3
1.060, -5.973e-3
1.061, -5.977e-3
1.062, -5.981e-3
1.063, -5.986e-3
1.064, -5.990e-3
1.065, -5.994e-3
1.066, -5.999e-3
1.067, -6.004e-3
1.068, -6.009e-3
1.069, -6.014e-3
1.070, -6.018e-3
1.071, -6.023e-3
1.072, -6.027e-3
1.073, -6.032e-3
1.074, -6.036e-3
1.075, -6.041e-3
1.076, -6.046e-3
1.077, -6.051e-3
1.078, -6.055e-3
1.079, -6.060e-3
1.080, -6.064e-3
1.081, -6.069e-3
1.082, -6.073e-3
1.083, -6.077e-3
1.084, -6.081e-3
1.085, -6.085e-3
1.086, -6.090e-3
1.087, -6.094e-3
1.088, -6.099e-3
1.089, -6.103e-3
1.090, -6.107e-3
1.091, -6.111e-3
1.092, -6.116e-3
1.093, -6.120e-3
1.094, -6.124e-3
1.095, -6.129e-3
1.096, -6.132e-3
1.097, -6.137e-3
1.098, -6.141e-3
1.099, -6.146e-3
1.100, -6.107e-3
1.099, -5.979e-3
1.098, -5.849e-3
1.097, -5.723e-3
1.096, -5.601e-3
1.095, -5.481e-3
1.094, -5.363e-3
1.093, -5.246e-3
1.092, -5.134e-3
1.091, -5.023e-3
1.090, -4.914e-3
1.089, -4.808e-3
1.088, -4.702e-3
1.087, -4.598e-3
1.086, -4.496e-3
1.085, -4.397e-3
1.084, -4.298e-3
1.083, -4.202e-3
1.082, -4.106e-3
1.081, -4.013e-3
1.080, -3.920e-3
1.079, -3.828e-3
1.078, -3.738e-3
1.077, -3.650e-3
1.076, -3.563e-3
1.075, -3.478e-3
1.074, -3.394e-3
1.073, -3.310e-3
1.072, -3.228e-3
1.071, -3.147e-3
1.070, -3.067e-3
1.069, -2.987e-3
1.068, -2.908e-3
1.067, -2.831e-3
1.066, -2.755e-3
1.065, -2.681e-3
1.064, -2.606e-3
1.063, -2.533e-3
1.062, -2.461e-3
1.061, -2.390e-3
1.060, -2.319e-3
1.059, -2.249e-3
1.058, -2.180e-3
1.057, -2.112e-3
1.056, -2.046e-3
1.055, -1.980e-3
1.054, -1.915e-3
1.053, -1.851e-3
1.052, -1.788e-3
1.051, -1.725e-3
1.050, -1.662e-3
1.049, -1.601e-3
1.048, -1.540e-3
1.047, -1.480e-3
1.046, -1.420e-3
1.045, -1.362e-3
1.044, -1.304e-3
1.043, -1.247e-3
1.042, -1.190e-3
1.041, -1.134e-3
1.040, -1.079e-3
1.039, -1.024e-3
1.038, -9.703e-4
1.037, -9.168e-4
1.036, -8.645e-4
1.035, -8.125e-4
1.034, -7.611e-4
1.033, -7.099e-4
1.032, -6.588e-4
1.031, -6.090e-4
1.030, -5.596e-4
1.029, -5.108e-4
1.028, -4.631e-4
1.027, -4.160e-4
1.026, -3.686e-4
1.025, -3.229e-4
1.024, -2.773e-4
1.023, -2.316e-4
1.022, -1.868e-4
1.021, -1.423e-4
1.020, -9.835e-5
1.019, -5.531e-5
1.018, -1.209e-5
1.017, 3.085e-5
1.016, 7.295e-5
1.015, 1.155e-4
1.014, 1.565e-4
1.013, 1.971e-4
1.012, 2.374e-4
1.011, 2.771e-4
1.010, 3.163e-4
1.009, 3.550e-4
1.008, 3.935e-4
1.007, 4.317e-4
1.006, 4.690e-4
1.005, 5.067e-4
1.004, 5.439e-4
1.003, 5.801e-4
1.002, 6.163e-4
1.001, 6.521e-4
1.000, 6.870e-4
0.999, 7.220e-4
0.998, 7.566e-4
0.997, 7.910e-4
0.996, 8.249e-4
0.995, 8.582e-4
0.994, 8.922e-4
0.993, 9.251e-4
0.992, 9.576e-4
0.991, 9.897e-4
0.990, 1.021e-3
0.989, 1.053e-3
0.988, 1.083e-3
0.987, 1.114e-3
0.986, 1.144e-3
0.985, 1.174e-3
0.984, 1.204e-3
0.983, 1.233e-3
0.982, 1.261e-3
0.981, 1.290e-3
0.980, 1.318e-3
0.979, 1.347e-3
0.978, 1.375e-3
0.977, 1.402e-3
0.976, 1.429e-3
0.975, 1.456e-3
0.974, 1.482e-3
0.973, 1.509e-3
0.972, 1.535e-3
0.971, 1.561e-3
0.970, 1.587e-3
0.969, 1.612e-3
0.968, 1.637e-3
0.967, 1.663e-3
0.966, 1.687e-3
0.965, 1.712e-3
0.964, 1.735e-3
0.963, 1.759e-3
0.962, 1.782e-3
0.961, 1.806e-3
0.960, 1.828e-3
0.959, 1.851e-3
0.958, 1.873e-3
0.957, 1.895e-3
0.956, 1.917e-3
0.955, 1.939e-3
0.954, 1.960e-3
0.953, 1.982e-3
0.952, 2.003e-3
0.951, 2.023e-3
0.950, 2.043e-3
0.949, 2.064e-3
0.948, 2.084e-3
0.947, 2.104e-3
0.946, 2.124e-3
0.945, 2.143e-3
0.944, 2.162e-3
0.943, 2.181e-3
0.942, 2.200e-3
0.941, 2.219e-3
0.940, 2.237e-3
0.939, 2.255e-3
0.938, 2.273e-3
0.937, 2.290e-3
0.936, 2.308e-3
0.935, 2.325e-3
0.934, 2.342e-3
0.933, 2.359e-3
0.932, 2.375e-3
0.931, 2.392e-3
0.930, 2.408e-3
0.929, 2.424e-3
0.928, 2.440e-3
0.927, 2.456e-3
0.926, 2.472e-3
0.925, 2.487e-3
0.924, 2.502e-3
0.923, 2.517e-3
0.922, 2.532e-3
0.921, 2.547e-3
0.920, 2.561e-3
0.919, 2.576e-3
0.918, 2.589e-3
0.917, 2.603e-3
0.916, 2.617e-3
0.915, 2.630e-3
0.914, 2.643e-3
0.913, 2.656e-3
0.912, 2.669e-3
0.911, 2.681e-3
0.910, 2.694e-3
0.909, 2.706e-3
0.908, 2.718e-3
0.907, 2.730e-3
0.906, 2.742e-3
0.905, 2.754e-3
0.904, 2.765e-3
0.903, 2.777e-3
0.902, 2.788e-3
0.901, 2.799e-3
0.900, 2.810e-3
0.899, 2.819e-3
0.898, 2.830e-3
0.897, 2.840e-3
0.896, 2.850e-3
0.895, 2.861e-3
0.894, 2.871e-3
0.893, 2.880e-3
0.892, 2.890e-3
0.891, 2.900e-3
0.890, 2.909e-3
0.889, 2.918e-3
0.888, 2.927e-3
0.887, 2.936e-3
0.886, 2.945e-3
0.885, 2.953e-3
0.884, 2.962e-3
0.883, 2.970e-3
0.882, 2.978e-3
0.881, 2.986e-3
0.880, 2.994e-3
0.879, 3.002e-3
0.878, 3.009e-3
0.877, 3.017e-3
0.876, 3.024e-3
0.875, 3.031e-3
0.874, 3.038e-3
0.873, 3.045e-3
0.872, 3.052e-3
0.871, 3.059e-3
0.870, 3.066e-3
0.869, 3.072e-3
0.868, 3.079e-3
0.867, 3.085e-3
0.866, 3.091e-3
0.865, 3.097e-3
0.864, 3.103e-3
0.863, 3.109e-3
0.862, 3.114e-3
0.861, 3.120e-3
0.860, 3.125e-3
0.859, 3.130e-3
0.858, 3.135e-3
0.857, 3.140e-3
0.856, 3.145e-3
0.855, 3.150e-3
0.854, 3.154e-3
0.853, 3.159e-3
0.852, 3.163e-3
0.851, 3.167e-3
0.850, 3.172e-3
0.849, 3.176e-3
0.848, 3.180e-3
0.847, 3.185e-3
0.846, 3.188e-3
0.845, 3.191e-3
0.844, 3.195e-3
0.843, 3.199e-3
0.842, 3.202e-3
0.841, 3.206e-3
0.840, 3.209e-3
0.839, 3.212e-3
0.838, 3.215e-3
0.837, 3.219e-3
0.836, 3.222e-3
0.835, 3.224e-3
0.834, 3.226e-3
0.833, 3.229e-3
0.832, 3.232e-3
0.831, 3.234e-3
0.830, 3.236e-3
0.829, 3.238e-3
0.828, 3.240e-3
0.827, 3.242e-3
0.826, 3.245e-3
0.825, 3.247e-3
0.824, 3.249e-3
0.823, 3.251e-3
0.822, 3.253e-3
0.821, 3.255e-3
0.820, 3.257e-3
0.819, 3.260e-3
0.818, 3.262e-3
0.817, 3.263e-3
0.816, 3.265e-3
0.815, 3.267e-3
0.814, 3.268e-3
0.813, 3.270e-3
0.812, 3.271e-3
0.811, 3.272e-3
0.810, 3.274e-3
0.809, 3.275e-3
0.808, 3.276e-3
0.807, 3.277e-3
0.806, 3.278e-3
0.805, 3.279e-3
0.804, 3.280e-3
0.803, 3.280e-3
0.802, 3.281e-3
0.801, 3.282e-3
0.800, 3.283e-3
0.799, 3.284e-3
0.798, 3.284e-3
0.797, 3.285e-3
0.796, 3.286e-3
0.795, 3.287e-3
0.794, 3.287e-3
0.793, 3.288e-3
0.792, 3.289e-3
0.791, 3.289e-3
0.790, 3.289e-3
0.789, 3.290e-3
0.788, 3.290e-3
0.787, 3.290e-3
0.786, 3.290e-3
0.785, 3.290e-3
0.784, 3.290e-3
0.783, 3.291e-3
0.782, 3.291e-3
0.781, 3.291e-3
0.780, 3.291e-3
0.779, 3.291e-3
0.778, 3.291e-3
0.777, 3.291e-3
0.776, 3.291e-3
0.775, 3.292e-3
0.774, 3.292e-3
0.773, 3.292e-3
0.772, 3.292e-3
0.771, 3.292e-3
0.770, 3.292e-3
0.769, 3.292e-3
0.768, 3.292e-3
0.767, 3.292e-3
0.766, 3.292e-3
0.765, 3.292e-3
0.764, 3.292e-3
0.763, 3.292e-3
0.762, 3.292e-3
0.761, 3.292e-3
0.760, 3.292e-3
0.759, 3.292e-3
0.758, 3.291e-3
0.757, 3.291e-3
0.756, 3.291e-3
0.755, 3.291e-3
0.754, 3.291e-3
0.753, 3.290e-3
0.752, 3.290e-3
0.751, 3.290e-3
0.750, 3.290e-3
0.749, 3.290e-3
0.748, 3.290e-3
0.747, 3.290e-3
0.746, 3.289e-3
0.745, 3.289e-3
0.744, 3.289e-3
0.743, 3.289e-3
0.742, 3.289e-3
0.741, 3.288e-3
0.740, 3.288e-3
0.739, 3.288e-3
0.738, 3.287e-3
0.737, 3.287e-3
0.736, 3.287e-3
0.735, 3.287e-3
0.734, 3.287e-3
0.733, 3.287e-3
0.732, 3.287e-3
0.731, 3.286e-3
0.730, 3.286e-3
0.729, 3.286e-3
0.728, 3.286e-3
0.727, 3.286e-3
0.726, 3.286e-3
0.725, 3.286e-3
0.724, 3.286e-3
0.723, 3.286e-3
0.722, 3.287e-3
0.721, 3.286e-3
0.720, 3.287e-3
0.719, 3.287e-3
0.718, 3.287e-3
0.717, 3.287e-3
0.716, 3.287e-3
0.715, 3.287e-3
0.714, 3.288e-3
0.713, 3.288e-3
0.712, 3.288e-3
0.711, 3.288e-3
0.710, 3.288e-3
0.709, 3.288e-3
0.708, 3.288e-3
0.707, 3.288e-3
0.706, 3.288e-3
0.705, 3.288e-3
0.704, 3.288e-3
0.703, 3.289e-3
0.702, 3.289e-3
0.701, 3.289e-3
0.700, 3.289e-3
0.699, 3.290e-3
0.698, 3.290e-3
0.697, 3.290e-3
0.696, 3.290e-3
0.695, 3.291e-3
0.694, 3.291e-3
0.693, 3.291e-3
0.692, 3.292e-3
0.691, 3.292e-3
0.690, 3.292e-3
0.689, 3.292e-3
0.688, 3.293e-3
0.687, 3.293e-3
0.686, 3.294e-3
0.685, 3.294e-3
0.684, 3.295e-3
0.683, 3.296e-3
0.682, 3.296e-3
0.681, 3.296e-3
0.680, 3.297e-3
0.679, 3.297e-3
0.678, 3.297e-3
0.677, 3.298e-3
0.676, 3.299e-3
0.675, 3.299e-3
0.674, 3.300e-3
0.673, 3.300e-3
0.672, 3.301e-3
0.671, 3.302e-3
0.670, 3.302e-3
0.669, 3.303e-3
0.668, 3.303e-3
0.667, 3.304e-3
0.666, 3.304e-3
0.665, 3.305e-3
0.664, 3.306e-3
0.663, 3.306e-3
0.662, 3.307e-3
0.661, 3.308e-3
0.660, 3.308e-3
0.659, 3.309e-3
0.658, 3.309e-3
0.657, 3.310e-3
0.656, 3.311e-3
0.655, 3.312e-3
0.654, 3.313e-3
0.653, 3.313e-3
0.652, 3.314e-3
0.651, 3.315e-3
0.650, 3.316e-3
0.649, 3.316e-3
0.648, 3.317e-3
0.647, 3.318e-3
0.646, 3.319e-3
0.645, 3.320e-3
0.644, 3.321e-3
0.643, 3.321e-3
0.642, 3.323e-3
0.641, 3.323e-3
0.640, 3.325e-3
0.639, 3.326e-3
0.638, 3.326e-3
0.637, 3.328e-3
0.636, 3.329e-3
0.635, 3.330e-3
0.634, 3.331e-3
0.633, 3.332e-3
0.632, 3.333e-3
0.631, 3.335e-3
0.630, 3.336e-3
0.629, 3.337e-3
0.628, 3.339e-3
0.627, 3.340e-3
0.626, 3.341e-3
0.625, 3.342e-3
0.624, 3.343e-3
0.623, 3.345e-3
0.622, 3.346e-3
0.621, 3.347e-3
0.620, 3.349e-3
0.619, 3.350e-3
0.618, 3.351e-3
0.617, 3.352e-3
0.616, 3.353e-3
0.615, 3.355e-3
0.614, 3.357e-3
0.613, 3.358e-3
0.612, 3.360e-3
0.611, 3.361e-3
0.610, 3.362e-3
0.609, 3.364e-3
0.608, 3.365e-3
0.607, 3.367e-3
0.606, 3.368e-3
0.605, 3.369e-3
0.604, 3.371e-3
0.603, 3.372e-3
0.602, 3.374e-3
0.601, 3.375e-3
0.600, 3.376e-3
0.599, 3.378e-3
0.598, 3.379e-3
0.597, 3.380e-3
0.596, 3.382e-3
0.595, 3.383e-3
0.594, 3.385e-3
0.593, 3.386e-3
0.592, 3.388e-3
0.591, 3.390e-3
0.590, 3.392e-3
0.589, 3.394e-3
0.588, 3.395e-3
0.587, 3.397e-3
0.586, 3.399e-3
0.585, 3.400e-3
0.584, 3.402e-3
0.583, 3.404e-3
0.582, 3.406e-3
0.581, 3.408e-3
0.580, 3.410e-3
0.579, 3.411e-3
0.578, 3.413e-3
0.577, 3.414e-3
0.576, 3.416e-3
0.575, 3.418e-3
0.574, 3.419e-3
0.573, 3.421e-3
0.572, 3.423e-3
0.571, 3.425e-3
0.570, 3.427e-3
0.569, 3.428e-3
0.568, 3.430e-3
0.567, 3.433e-3
0.566, 3.435e-3
0.565, 3.437e-3
0.564, 3.439e-3
0.563, 3.441e-3
0.562, 3.443e-3
0.561, 3.445e-3
0.560, 3.447e-3
0.559, 3.449e-3
0.558, 3.450e-3
0.557, 3.452e-3
0.556, 3.454e-3
0.555, 3.456e-3
0.554, 3.458e-3
0.553, 3.460e-3
0.552, 3.462e-3
0.551, 3.465e-3
0.550, 3.466e-3
0.549, 3.469e-3
0.548, 3.471e-3
0.547, 3.473e-3
0.546, 3.475e-3
0.545, 3.477e-3
0.544, 3.479e-3
0.543, 3.482e-3
0.542, 3.483e-3
0.541, 3.486e-3
0.540, 3.487e-3
0.539, 3.490e-3
0.538, 3.492e-3
0.537, 3.494e-3
0.536, 3.497e-3
0.535, 3.499e-3
0.534, 3.501e-3
0.533, 3.504e-3
0.532, 3.506e-3
0.531, 3.508e-3
0.530, 3.510e-3
0.529, 3.512e-3
0.528, 3.514e-3
0.527, 3.517e-3
0.526, 3.519e-3
0.525, 3.521e-3
0.524, 3.524e-3
0.523, 3.526e-3
0.522, 3.528e-3
0.521, 3.531e-3
0.520, 3.533e-3
0.519, 3.536e-3
0.518, 3.538e-3
0.517, 3.541e-3
0.516, 3.543e-3
0.515, 3.545e-3
0.514, 3.548e-3
0.513, 3.550e-3
0.512, 3.553e-3
0.511, 3.556e-3
0.510, 3.558e-3
0.509, 3.560e-3
0.508, 3.563e-3
0.507, 3.565e-3
0.506, 3.567e-3
0.505, 3.570e-3
0.504, 3.572e-3
0.503, 3.574e-3
0.502, 3.577e-3
0.501, 3.579e-3
0.500, 3.581e-3
0.499, 3.583e-3
0.498, 3.586e-3
0.497, 3.588e-3
0.496, 3.590e-3
0.495, 3.593e-3
0.494, 3.595e-3
0.493, 3.597e-3
0.492, 3.600e-3
0.491, 3.602e-3
0.490, 3.604e-3
0.489, 3.606e-3
0.488, 3.609e-3
0.487, 3.611e-3
0.486, 3.614e-3
0.485, 3.616e-3
0.484, 3.619e-3
0.483, 3.621e-3
0.482, 3.623e-3
0.481, 3.626e-3
0.480, 3.628e-3
0.479, 3.630e-3
0.478, 3.632e-3
0.477, 3.635e-3
0.476, 3.637e-3
0.475, 3.639e-3
0.474, 3.642e-3
0.473, 3.644e-3
0.472, 3.647e-3
0.471, 3.649e-3
0.470, 3.651e-3
0.469, 3.653e-3
0.468, 3.656e-3
0.467, 3.658e-3
0.466, 3.661e-3
0.465, 3.663e-3
0.464, 3.666e-3
0.463, 3.668e-3
0.462, 3.670e-3
0.461, 3.673e-3
0.460, 3.675e-3
0.459, 3.677e-3
0.458, 3.679e-3
0.457, 3.682e-3
0.456, 3.684e-3
0.455, 3.686e-3
0.454, 3.688e-3
0.453, 3.690e-3
0.452, 3.693e-3
0.451, 3.695e-3
0.450, 3.697e-3
0.449, 3.700e-3
0.448, 3.702e-3
0.447, 3.704e-3
0.446, 3.706e-3
0.445, 3.708e-3
0.444, 3.711e-3
0.443, 3.713e-3
0.442, 3.716e-3
0.441, 3.718e-3
0.440, 3.720e-3
0.439, 3.722e-3
0.438, 3.724e-3
0.437, 3.726e-3
0.436, 3.728e-3
0.435, 3.731e-3
0.434, 3.733e-3
0.433, 3.735e-3
0.432, 3.737e-3
0.431, 3.740e-3
0.430, 3.742e-3
0.429, 3.744e-3
0.428, 3.747e-3
0.427, 3.748e-3
0.426, 3.751e-3
0.425, 3.752e-3
0.424, 3.755e-3
0.423, 3.757e-3
0.422, 3.759e-3
0.421, 3.761e-3
0.420, 3.763e-3
0.419, 3.765e-3
0.418, 3.768e-3
0.417, 3.770e-3
0.416, 3.772e-3
0.415, 3.774e-3
0.414, 3.776e-3
0.413, 3.779e-3
0.412, 3.781e-3
0.411, 3.783e-3
0.410, 3.785e-3
0.409, 3.787e-3
0.408, 3.789e-3
0.407, 3.792e-3
0.406, 3.794e-3
0.405, 3.796e-3
0.404, 3.798e-3
0.403, 3.800e-3
0.402, 3.803e-3
0.401, 3.805e-3
0.400, 3.807e-3
0.399, 3.809e-3
0.398, 3.811e-3
0.397, 3.813e-3
0.396, 3.816e-3
0.395, 3.818e-3
0.394, 3.820e-3
0.393, 3.822e-3
0.392, 3.824e-3
0.391, 3.827e-3
0.390, 3.829e-3
0.389, 3.831e-3
0.388, 3.833e-3
0.387, 3.835e-3
0.386, 3.837e-3
0.385, 3.839e-3
0.384, 3.841e-3
0.383, 3.843e-3
0.382, 3.845e-3
0.381, 3.847e-3
0.380, 3.850e-3
0.379, 3.851e-3
0.378, 3.854e-3
0.377, 3.856e-3
0.376, 3.858e-3
0.375, 3.860e-3
0.374, 3.863e-3
0.373, 3.865e-3
0.372, 3.868e-3
0.371, 3.870e-3
0.370, 3.872e-3
0.369, 3.874e-3
0.368, 3.876e-3
0.367, 3.879e-3
0.366, 3.881e-3
0.365, 3.883e-3
0.364, 3.886e-3
0.363, 3.888e-3
0.362, 3.890e-3
0.361, 3.892e-3
0.360, 3.894e-3
0.359, 3.896e-3
0.358, 3.899e-3
0.357, 3.901e-3
0.356, 3.903e-3
0.355, 3.906e-3
0.354, 3.908e-3
0.353, 3.910e-3
0.352, 3.912e-3
0.351, 3.915e-3
0.350, 3.917e-3
0.349, 3.919e-3
0.348, 3.921e-3
0.347, 3.923e-3
0.346, 3.925e-3
0.345, 3.927e-3
0.344, 3.929e-3
0.343, 3.931e-3
0.342, 3.933e-3
0.341, 3.935e-3
0.340, 3.937e-3
0.339, 3.939e-3
0.338, 3.942e-3
0.337, 3.944e-3
0.336, 3.946e-3
0.335, 3.948e-3
0.334, 3.949e-3
0.333, 3.952e-3
0.332, 3.954e-3
0.331, 3.956e-3
0.330, 3.958e-3
0.329, 3.960e-3
0.328, 3.961e-3
0.327, 3.963e-3
0.326, 3.965e-3
0.325, 3.966e-3
0.324, 3.968e-3
0.323, 3.970e-3
0.322, 3.972e-3
0.321, 3.974e-3
0.320, 3.976e-3
0.319, 3.978e-3
0.318, 3.980e-3
0.317, 3.982e-3
0.316, 3.984e-3
0.315, 3.985e-3
0.314, 3.988e-3
0.313, 3.989e-3
0.312, 3.991e-3
0.311, 3.993e-3
0.310, 3.994e-3
0.309, 3.996e-3
0.308, 3.998e-3
0.307, 4.000e-3
0.306, 4.002e-3
0.305, 4.003e-3
0.304, 4.005e-3
0.303, 4.007e-3
0.302, 4.009e-3
0.301, 4.011e-3
0.300, 4.013e-3
0.299, 4.015e-3
0.298, 4.016e-3
0.297, 4.018e-3
0.296, 4.019e-3
0.295, 4.021e-3
0.294, 4.022e-3
0.293, 4.023e-3
0.292, 4.025e-3
0.291, 4.026e-3
0.290, 4.027e-3
0.289, 4.029e-3
0.288, 4.030e-3
0.287, 4.032e-3
0.286, 4.033e-3
0.285, 4.035e-3
0.284, 4.037e-3
0.283, 4.038e-3
0.282, 4.039e-3
0.281, 4.041e-3
0.280, 4.042e-3
0.279, 4.043e-3
0.278, 4.045e-3
0.277, 4.046e-3
0.276, 4.047e-3
0.275, 4.048e-3
0.274, 4.049e-3
0.273, 4.050e-3
0.272, 4.050e-3
0.271, 4.051e-3
0.270, 4.051e-3
0.269, 4.052e-3
0.268, 4.053e-3
0.267, 4.054e-3
0.266, 4.055e-3
0.265, 4.056e-3
0.264, 4.057e-3
0.263, 4.057e-3
0.262, 4.058e-3
0.261, 4.058e-3
0.260, 4.059e-3
0.259, 4.059e-3
0.258, 4.060e-3
0.257, 4.061e-3
0.256, 4.061e-3
0.255, 4.062e-3
0.254, 4.062e-3
0.253, 4.062e-3
0.252, 4.063e-3
0.251, 4.063e-3
0.250, 4.064e-3
0.249, 4.064e-3
0.248, 4.064e-3
0.247, 4.065e-3
0.246, 4.065e-3
0.245, 4.065e-3
0.244, 4.065e-3
0.243, 4.065e-3
0.242, 4.065e-3
0.241, 4.065e-3
0.240, 4.065e-3
0.239, 4.064e-3
0.238, 4.064e-3
0.237, 4.064e-3
0.236, 4.064e-3
0.235, 4.064e-3
0.234, 4.064e-3
0.233, 4.064e-3
0.232, 4.064e-3
0.231, 4.064e-3
0.230, 4.063e-3
0.229, 4.063e-3
0.228, 4.063e-3
0.227, 4.062e-3
0.226, 4.062e-3
0.225, 4.062e-3
0.224, 4.062e-3
0.223, 4.061e-3
0.222, 4.061e-3
0.221, 4.060e-3
0.220, 4.060e-3
0.219, 4.058e-3
0.218, 4.057e-3
0.217, 4.056e-3
0.216, 4.056e-3
0.215, 4.055e-3
0.214, 4.054e-3
0.213, 4.053e-3
0.212, 4.052e-3
0.211, 4.051e-3
0.210, 4.050e-3
0.209, 4.049e-3
0.208, 4.048e-3
0.207, 4.047e-3
0.206, 4.046e-3
0.205, 4.046e-3
0.204, 4.045e-3
0.203, 4.044e-3
0.202, 4.044e-3
0.201, 4.043e-3
0.200, 4.041e-3
0.199, 4.040e-3
0.198, 4.039e-3
0.197, 4.037e-3
0.196, 4.036e-3
0.195, 4.034e-3
0.194, 4.033e-3
0.193, 4.031e-3
0.192, 4.030e-3
0.191, 4.029e-3
0.190, 4.028e-3
0.189, 4.026e-3
0.188, 4.025e-3
0.187, 4.023e-3
0.186, 4.022e-3
0.185, 4.021e-3
0.184, 4.020e-3
0.183, 4.019e-3
0.182, 4.017e-3
0.181, 4.016e-3
0.180, 4.015e-3
0.179, 4.013e-3
0.178, 4.013e-3
0.177, 4.011e-3
0.176, 4.010e-3
0.175, 4.009e-3
0.174, 4.007e-3
0.173, 4.006e-3
0.172, 4.004e-3
0.171, 4.002e-3
0.170, 4.000e-3
0.169, 3.999e-3
0.168, 3.997e-3
0.167, 3.996e-3
0.166, 3.995e-3
0.165, 3.993e-3
0.164, 3.992e-3
0.163, 3.990e-3
0.162, 3.989e-3
0.161, 3.988e-3
0.160, 3.987e-3
0.159, 3.986e-3
0.158, 3.985e-3
0.157, 3.984e-3
0.156, 3.983e-3
0.155, 3.981e-3
0.154, 3.979e-3
0.153, 3.977e-3
0.152, 3.976e-3
0.151, 3.975e-3
0.150, 3.973e-3
0.149, 3.972e-3
0.148, 3.971e-3
0.147, 3.970e-3
0.146, 3.968e-3
0.145, 3.967e-3
0.144, 3.965e-3
0.143, 3.964e-3
0.142, 3.963e-3
0.141, 3.962e-3
0.140, 3.961e-3
0.139, 3.960e-3
0.138, 3.959e-3
0.137, 3.958e-3
0.136, 3.956e-3
0.135, 3.955e-3
0.134, 3.954e-3
0.133, 3.953e-3
0.132, 3.952e-3
0.131, 3.951e-3
0.130, 3.950e-3
0.129, 3.950e-3
0.128, 3.949e-3
0.127, 3.948e-3
0.126, 3.947e-3
0.125, 3.946e-3
0.124, 3.946e-3
0.123, 3.945e-3
0.122, 3.944e-3
0.121, 3.943e-3
0.120, 3.943e-3
0.119, 3.942e-3
0.118, 3.941e-3
0.117, 3.940e-3
0.116, 3.939e-3
0.115, 3.938e-3
0.114, 3.937e-3
0.113, 3.936e-3
0.112, 3.935e-3
0.111, 3.934e-3
0.110, 3.933e-3
0.109, 3.932e-3
0.108, 3.932e-3
0.107, 3.931e-3
0.106, 3.930e-3
0.105, 3.930e-3
0.104, 3.929e-3
0.103, 3.928e-3
0.102, 3.928e-3
0.101, 3.927e-3
0.100, 3.926e-3
0.099, 3.926e-3
0.098, 3.924e-3
0.097, 3.923e-3
0.096, 3.922e-3
0.095, 3.920e-3
0.094, 3.919e-3
0.093, 3.919e-3
0.092, 3.918e-3
0.091, 3.917e-3
0.090, 3.916e-3
0.089, 3.915e-3
0.088, 3.914e-3
0.087, 3.913e-3
0.086, 3.912e-3
0.085, 3.911e-3
0.084, 3.911e-3
0.083, 3.910e-3
0.082, 3.909e-3
0.081, 3.909e-3
0.080, 3.908e-3
0.079, 3.907e-3
0.078, 3.906e-3
0.077, 3.906e-3
0.076, 3.905e-3
0.075, 3.905e-3
0.074, 3.904e-3
0.073, 3.904e-3
0.072, 3.904e-3
0.071, 3.904e-3
0.070, 3.904e-3
0.069, 3.904e-3
0.068, 3.904e-3
0.067, 3.904e-3
0.066, 3.904e-3
0.065, 3.904e-3
0.064, 3.905e-3
0.063, 3.905e-3
0.062, 3.905e-3
0.061, 3.904e-3
0.060, 3.904e-3
0.059, 3.904e-3
0.058, 3.904e-3
0.057, 3.904e-3
0.056, 3.904e-3
0.055, 3.904e-3
0.054, 3.904e-3
0.053, 3.905e-3
0.052, 3.906e-3
0.051, 3.906e-3
0.050, 3.906e-3
0.049, 3.907e-3
0.048, 3.908e-3
0.047, 3.908e-3
0.046, 3.909e-3
0.045, 3.910e-3
0.044, 3.911e-3
0.043, 3.912e-3
0.042, 3.912e-3
0.041, 3.914e-3
0.040, 3.915e-3
0.039, 3.916e-3
0.038, 3.917e-3
0.037, 3.919e-3
0.036, 3.921e-3
0.035, 3.923e-3
0.034, 3.924e-3
0.033, 3.926e-3
0.032, 3.927e-3
0.031, 3.929e-3
0.030, 3.931e-3
0.029, 3.933e-3
0.028, 3.934e-3
0.027, 3.936e-3
0.026, 3.938e-3
0.025, 3.940e-3
0.024, 3.942e-3
0.023, 3.944e-3
0.022, 3.946e-3
0.021, 3.949e-3
0.020, 3.952e-3
0.019, 3.954e-3
0.018, 3.957e-3
0.017, 3.959e-3
0.016, 3.961e-3
0.015, 3.963e-3
0.014, 3.965e-3
0.013, 3.968e-3
0.012, 3.971e-3
0.011, 3.973e-3
0.010, 3.976e-3
0.009, 3.979e-3
0.008, 3.983e-3
0.007, 3.986e-3
0.006, 3.989e-3
0.005, 3.992e-3
0.004, 3.995e-3
0.003, 3.998e-3
0.002, 4.002e-3
0.001, 4.005e-3
0.000, 4.009e-3
-0.001, 4.013e-3
-0.002, 4.016e-3
-0.003, 4.019e-3
-0.004, 4.022e-3
-0.005, 4.025e-3
-0.006, 4.028e-3
-0.007, 4.033e-3
-0.008, 4.037e-3
-0.009, 4.041e-3
-0.010, 4.045e-3
-0.011, 4.049e-3
-0.012, 4.053e-3
-0.013, 4.058e-3
-0.014, 4.062e-3
-0.015, 4.067e-3
-0.016, 4.071e-3
-0.017, 4.075e-3
-0.018, 4.079e-3
-0.019, 4.084e-3
-0.020, 4.088e-3
-0.021, 4.093e-3
-0.022, 4.097e-3
-0.023, 4.102e-3
-0.024, 4.107e-3
-0.025, 4.112e-3
-0.026, 4.117e-3
-0.027, 4.122e-3
-0.028, 4.127e-3
-0.029, 4.132e-3
-0.030, 4.137e-3
-0.031, 4.142e-3
-0.032, 4.148e-3
-0.033, 4.153e-3
-0.034, 4.159e-3
-0.035, 4.164e-3
-0.036, 4.169e-3
-0.037, 4.174e-3
-0.038, 4.179e-3
-0.039, 4.185e-3
-0.040, 4.190e-3
-0.041, 4.196e-3
-0.042, 4.202e-3
-0.043, 4.208e-3
-0.044, 4.215e-3
-0.045, 4.221e-3
-0.046, 4.227e-3
-0.047, 4.233e-3
-0.048, 4.240e-3
-0.049, 4.247e-3
-0.050, 4.254e-3
-0.051, 4.260e-3
-0.052, 4.267e-3
-0.053, 4.274e-3
-0.054, 4.282e-3
-0.055, 4.289e-3
-0.056, 4.296e-3
-0.057, 4.303e-3
-0.058, 4.310e-3
-0.059, 4.317e-3
-0.060, 4.324e-3
-0.061, 4.331e-3
-0.062, 4.340e-3
-0.063, 4.347e-3
-0.064, 4.355e-3
-0.065, 4.363e-3
-0.066, 4.371e-3
-0.067, 4.379e-3
-0.068, 4.387e-3
-0.069, 4.395e-3
-0.070, 4.403e-3
-0.071, 4.411e-3
-0.072, 4.419e-3
-0.073, 4.428e-3
-0.074, 4.437e-3
-0.075, 4.445e-3
-0.076, 4.454e-3
-0.077, 4.463e-3
-0.078, 4.472e-3
-0.079, 4.480e-3
-0.080, 4.489e-3
-0.081, 4.498e-3
-0.082, 4.507e-3
-0.083, 4.516e-3
-0.084, 4.525e-3
-0.085, 4.533e-3
-0.086, 4.542e-3
-0.087, 4.551e-3
-0.088, 4.560e-3
-0.089, 4.569e-3
-0.090, 4.578e-3
-0.091, 4.587e-3
-0.092, 4.596e-3
-0.093, 4.606e-3
-0.094, 4.615e-3
-0.095, 4.625e-3
-0.096, 4.634e-3
-0.097, 4.644e-3
-0.098, 4.654e-3
-0.099, 4.664e-3
-0.100, 4.643e-3
-0.099, 4.558e-3
-0.098, 4.475e-3
-0.097, 4.397e-3
-0.096, 4.321e-3
-0.095, 4.247e-3
-0.094, 4.176e-3
-0.093, 4.107e-3
-0.092, 4.039e-3
-0.091, 3.972e-3
-0.090, 3.907e-3
-0.089, 3.843e-3
-0.088, 3.782e-3
-0.087, 3.721e-3
-0.086, 3.662e-3
-0.085, 3.603e-3
-0.084, 3.546e-3
-0.083, 3.489e-3
-0.082, 3.433e-3
-0.081, 3.378e-3
-0.080, 3.324e-3
-0.079, 3.271e-3
-0.078, 3.217e-3
-0.077, 3.165e-3
-0.076, 3.113e-3
-0.075, 3.062e-3
-0.074, 3.013e-3
-0.073, 2.963e-3
-0.072, 2.914e-3
-0.071, 2.866e-3
-0.070, 2.818e-3
-0.069, 2.772e-3
-0.068, 2.725e-3
-0.067, 2.679e-3
-0.066, 2.633e-3
-0.065, 2.588e-3
-0.064, 2.544e-3
-0.063, 2.500e-3
-0.062, 2.455e-3
-0.061, 2.411e-3
-0.060, 2.368e-3
-0.059, 2.326e-3
-0.058, 2.284e-3
-0.057, 2.242e-3
-0.056, 2.201e-3
-0.055, 2.160e-3
-0.054, 2.119e-3
-0.053, 2.079e-3
-0.052, 2.039e-3
-0.051, 2.000e-3
-0.050, 1.960e-3
-0.049, 1.921e-3
-0.048, 1.883e-3
-0.047, 1.845e-3
-0.046, 1.807e-3
-0.045, 1.770e-3
-0.044, 1.733e-3
-0.043, 1.696e-3
-0.042, 1.658e-3
-0.041, 1.621e-3
-0.040, 1.586e-3
-0.039, 1.550e-3
-0.038, 1.514e-3
-0.037, 1.479e-3
-0.036, 1.444e-3
-0.035, 1.410e-3
-0.034, 1.376e-3
-0.033, 1.342e-3
-0.032, 1.308e-3
-0.031, 1.274e-3
-0.030, 1.242e-3
-0.029, 1.209e-3
-0.028, 1.176e-3
-0.027, 1.144e-3
-0.026, 1.111e-3
-0.025, 1.079e-3
-0.024, 1.048e-3
-0.023, 1.016e-3
-0.022, 9.851e-4
-0.021, 9.541e-4
-0.020, 9.233e-4
-0.019, 8.923e-4
-0.018, 8.610e-4
-0.017, 8.308e-4
-0.016, 8.010e-4
-0.015, 7.713e-4
-0.014, 7.417e-4
-0.013, 7.124e-4
-0.012, 6.833e-4
-0.011, 6.550e-4
-0.010, 6.264e-4
-0.009, 5.977e-4
-0.008, 5.697e-4
-0.007, 5.416e-4
-0.006, 5.134e-4
-0.005, 4.857e-4
-0.004, 4.582e-4
-0.003, 4.313e-4
-0.002, 4.042e-4
-0.001, 3.774e-4
-0.000, 3.497e-4
0.001, 3.231e-4
0.002, 2.968e-4
0.003, 2.710e-4
0.004, 2.451e-4
0.005, 2.194e-4
0.006, 1.939e-4
0.007, 1.685e-4
0.008, 1.436e-4
0.009, 1.183e-4
0.010, 9.331e-5
0.011, 6.776e-5
0.012, 4.344e-5
0.013, 1.926e-5
0.014, -4.798e-6
0.015, -2.887e-5
0.016, -5.229e-5
0.017, -7.603e-5
0.018, -9.922e-5
0.019, -1.223e-4
0.020, -1.454e-4
0.021, -1.684e-4
0.022, -1.911e-4
0.023, -2.137e-4
0.024, -2.360e-4
0.025, -2.583e-4
0.026, -2.807e-4
0.027, -3.026e-4
0.028, -3.234e-4
0.029, -3.443e-4
0.030, -3.658e-4
0.031, -3.870e-4
0.032, -4.084e-4
0.033, -4.295e-4
0.034, -4.502e-4
0.035, -4.707e-4
0.036, -4.912e-4
0.037, -5.111e-4
0.038, -5.314e-4
0.039, -5.515e-4
0.040, -5.715e-4
0.041, -5.912e-4
0.042, -6.109e-4
0.043, -6.301e-4
0.044, -6.495e-4
0.045, -6.689e-4
0.046, -6.881e-4
0.047, -7.078e-4
0.048, -7.264e-4
0.049, -7.451e-4
0.050, -7.635e-4
0.051, -7.819e-4
0.052, -8.003e-4
0.053, -8.184e-4
0.054, -8.362e-4
0.055, -8.539e-4
0.056, -8.715e-4
0.057, -8.889e-4
0.058, -9.061e-4
0.059, -9.232e-4
0.060, -9.404e-4
0.061, -9.572e-4
0.062, -9.741e-4
0.063, -9.910e-4
0.064, -1.007e-3
0.065, -1.024e-3
0.066, -1.040e-3
0.067, -1.056e-3
0.068, -1.073e-3
0.069, -1.088e-3
0.070, -1.104e-3
0.071, -1.120e-3
0.072, -1.136e-3
0.073, -1.151e-3
0.074, -1.166e-3
0.075, -1.181e-3
0.076, -1.197e-3
0.077, -1.212e-3
0.078, -1.226e-3
0.079, -1.241e-3
0.080, -1.256e-3
0.081, -1.270e-3
0.082, -1.284e-3
0.083, -1.298e-3
0.084, -1.313e-3
0.085, -1.326e-3
0.086, -1.340e-3
0.087, -1.354e-3
0.088, -1.368e-3
0.089, -1.381e-3
0.090, -1.395e-3
0.091, -1.408e-3
0.092, -1.421e-3
0.093, -1.434e-3
0.094, -1.447e-3
0.095, -1.460e-3
0.096, -1.473e-3
0.097, -1.486e-3
0.098, -1.499e-3
0.099, -1.512e-3
0.100, -1.524e-3
0.101, -1.536e-3
0.102, -1.549e-3
0.103, -1.561e-3
0.104, -1.573e-3
0.105, -1.585e-3
0.106, -1.596e-3
0.107, -1.608e-3
0.108, -1.620e-3
0.109, -1.631e-3
0.110, -1.643e-3
0.111, -1.654e-3
0.112, -1.665e-3
0.113, -1.676e-3
0.114, -1.687e-3
0.115, -1.698e-3
0.116, -1.709e-3
0.117, -1.719e-3
0.118, -1.730e-3
0.119, -1.741e-3
0.120, -1.751e-3
0.121, -1.762e-3
0.122, -1.772e-3
0.123, -1.782e-3
0.124, -1.792e-3
0.125, -1.802e-3
0.126, -1.812e-3
0.127, -1.822e-3
0.128, -1.832e-3
0.129, -1.841e-3
0.130, -1.851e-3
0.131, -1.860e-3
0.132, -1.870e-3
0.133, -1.879e-3
0.134, -1.887e-3
0.135, -1.896e-3
0.136, -1.905e-3
0.137, -1.915e-3
0.138, -1.924e-3
0.139, -1.933e-3
0.140, -1.941e-3
0.141, -1.950e-3
0.142, -1.959e-3
0.143, -1.968e-3
0.144, -1.976e-3
0.145, -1.985e-3
0.146, -1.993e-3
0.147, -2.002e-3
0.148, -2.011e-3
0.149, -2.019e-3
0.150, -2.027e-3
0.151, -2.035e-3
0.152, -2.043e-3
0.153, -2.051e-3
0.154, -2.059e-3
0.155, -2.067e-3
0.156, -2.075e-3
0.157, -2.083e-3
0.158, -2.091e-3
0.159, -2.098e-3
0.160, -2.106e-3
0.161, -2.114e-3
0.162, -2.121e-3
0.163, -2.129e-3
0.164, -2.136e-3
0.165, -2.144e-3
0.166, -2.151e-3
0.167, -2.158e-3
0.168, -2.165e-3
0.169, -2.173e-3
0.170, -2.180e-3
0.171, -2.187e-3
0.172, -2.194e-3
0.173, -2.201e-3
0.174, -2.208e-3
0.175, -2.215e-3
0.176, -2.222e-3
0.177, -2.228e-3
0.178, -2.235e-3
0.179, -2.242e-3
0.180, -2.249e-3
0.181, -2.255e-3
0.182, -2.262e-3
0.183, -2.269e-3
0.184, -2.276e-3
0.185, -2.283e-3
0.186, -2.290e-3
0.187, -2.296e-3
0.188, -2.302e-3
0.189, -2.308e-3
0.190, -2.314e-3
0.191, -2.321e-3
0.192, -2.327e-3
0.193, -2.333e-3
0.194, -2.339e-3
0.195, -2.345e-3
0.196, -2.351e-3
0.197, -2.357e-3
0.198, -2.364e-3
0.199, -2.370e-3
0.200, -2.376e-3
0.201, -2.382e-3
0.202, -2.388e-3
0.203, -2.394e-3
0.204, -2.399e-3
0.205, -2.406e-3
0.206, -2.412e-3
0.207, -2.418e-3
0.208, -2.423e-3
0.209, -2.429e-3
0.210, -2.435e-3
0.211, -2.441e-3
0.212, -2.447e-3
0.213, -2.452e-3
0.214, -2.458e-3
0.215, -2.464e-3
0.216, -2.469e-3
0.217, -2.475e-3
0.218, -2.481e-3
0.219, -2.487e-3
0.220, -2.492e-3
0.221, -2.497e-3
0.222, -2.503e-3
0.223, -2.509e-3
0.224, -2.515e-3
0.225, -2.520e-3
0.226, -2.526e-3
0.227, -2.531e-3
0.228, -2.537e-3
0.229, -2.542e-3
0.230, -2.548e-3
0.231, -2.553e-3
0.232, -2.558e-3
0.233, -2.564e-3
0.234, -2.570e-3
0.235, -2.576e-3
0.236, -2.581e-3
0.237, -2.587e-3
0.238, -2.592e-3
0.239, -2.597e-3
0.240, -2.603e-3
0.241, -2.608e-3
0.242, -2.614e-3
0.243, -2.619e-3
0.244, -2.625e-3
0.245, -2.630e-3
0.246, -2.636e-3
0.247, -2.641e-3
0.248, -2.647e-3
0.249, -2.652e-3
0.250, -2.658e-3
0.251, -2.664e-3
0.252, -2.669e-3
0.253, -2.674e-3
0.254, -2.680e-3
0.255, -2.685e-3
0.256, -2.691e-3
0.257, -2.696e-3
0.258, -2.701e-3
0.259, -2.707e-3
0.260, -2.712e-3
0.261, -2.718e-3
0.262, -2.723e-3
0.263, -2.729e-3
0.264, -2.735e-3
0.265, -2.740e-3
0.266, -2.745e-3
0.267, -2.751e-3
0.268, -2.757e-3
0.269, -2.762e-3
0.270, -2.768e-3
0.271, -2.773e-3
0.272, -2.779e-3
0.273, -2.784e-3
0.274, -2.790e-3
0.275, -2.796e-3
0.276, -2.801e-3
0.277, -2.806e-3
0.278, -2.812e-3
0.279, -2.818e-3
0.280, -2.823e-3
0.281, -2.829e-3
0.282, -2.835e-3
0.283, -2.840e-3
0.284, -2.846e-3
0.285, -2.852e-3
0.286, -2.858e-3
0.287, -2.864e-3
0.288, -2.870e-3
0.289, -2.875e-3
0.290, -2.881e-3
0.291, -2.887e-3
0.292, -2.892e-3
0.293, -2.898e-3
0.294, -2.904e-3
0.295, -2.910e-3
0.296, -2.915e-3
0.297, -2.921e-3
0.298, -2.927e-3
0.299, -2.933e-3
0.300, -2.938e-3
0.301, -2.944e-3
0.302, -2.950e-3
0.303, -2.956e-3
0.304, -2.962e-3
0.305, -2.968e-3
0.306, -2.974e-3
0.307, -2.980e-3
0.308, -2.987e-3
0.309, -2.992e-3
0.310, -2.998e-3
0.311, -3.005e-3
0.312, -3.011e-3
0.313, -3.017e-3
0.314, -3.022e-3
0.315, -3.028e-3
0.316, -3.035e-3
0.317, -3.040e-3
0.318, -3.047e-3
0.319, -3.053e-3
0.320, -3.059e-3
0.321, -3.066e-3
0.322, -3.072e-3
0.323, -3.078e-3
0.324, -3.084e-3
0.325, -3.090e-3
0.326, -3.096e-3
0.327, -3.102e-3
0.328, -3.108e-3
0.329, -3.114e-3
0.330, -3.121e-3
0.331, -3.127e-3
0.332, -3.133e-3
0.333, -3.139e-3
0.334, -3.146e-3
0.335, -3.152e-3
0.336, -3.158e-3
0.337, -3.164e-3
0.338, -3.171e-3
0.339, -3.177e-3
0.340, -3.184e-3
0.341, -3.189e-3
0.342, -3.196e-3
0.343, -3.202e-3
0.344, -3.208e-3
0.345, -3.214e-3
0.346, -3.221e-3
0.347, -3.227e-3
0.348, -3.234e-3
0.349, -3.240e-3
0.350, -3.246e-3
0.351, -3.253e-3
0.352, -3.259e-3
0.353, -3.267e-3
0.354, -3.273e-3
0.355, -3.280e-3
0.356, -3.287e-3
0.357, -3.293e-3
0.358, -3.300e-3
0.359, -3.307e-3
0.360, -3.313e-3
0.361, -3.320e-3
0.362, -3.327e-3
0.363, -3.333e-3
0.364, -3.340e-3
0.365, -3.347e-3
0.366, -3.353e-3
0.367, -3.359e-3
0.368, -3.365e-3
0.369, -3.372e-3
0.370, -3.379e-3
0.371, -3.385e-3
0.372, -3.392e-3
0.373, -3.398e-3
0.374, -3.405e-3
0.375, -3.411e-3
0.376, -3.418e-3
0.377, -3.424e-3
0.378, -3.431e-3
0.379, -3.438e-3
0.380, -3.445e-3
0.381, -3.450e-3
0.382, -3.457e-3
0.383, -3.463e-3
0.384, -3.470e-3
0.385, -3.476e-3
0.386, -3.483e-3
0.387, -3.489e-3
0.388, -3.496e-3
0.389, -3.502e-3
0.390, -3.509e-3
0.391, -3.516e-3
0.392, -3.522e-3
0.393, -3.529e-3
0.394, -3.535e-3
0.395, -3.542e-3
0.396, -3.548e-3
0.397, -3.555e-3
0.398, -3.561e-3
0.399, -3.567e-3
0.400, -3.574e-3
0.401, -3.580e-3
0.402, -3.587e-3
0.403, -3.594e-3
0.404, -3.600e-3
0.405, -3.607e-3
0.406, -3.613e-3
0.407, -3.619e-3
0.408, -3.626e-3
0.409, -3.632e-3
0.410, -3.638e-3
0.411, -3.644e-3
0.412, -3.650e-3
0.413, -3.657e-3
0.414, -3.663e-3
0.415, -3.669e-3
0.416, -3.675e-3
0.417, -3.681e-3
0.418, -3.687e-3
0.419, -3.694e-3
0.420, -3.700e-3
0.421, -3.706e-3
0.422, -3.712e-3
0.423, -3.718e-3
0.424, -3.724e-3
0.425, -3.730e-3
0.426, -3.736e-3
0.427, -3.742e-3
0.428, -3.749e-3
0.429, -3.754e-3
0.430, -3.760e-3
0.431, -3.766e-3
0.432, -3.772e-3
0.433, -3.778e-3
0.434, -3.783e-3
0.435, -3.789e-3
0.436, -3.795e-3
0.437, -3.801e-3
0.438, -3.807e-3
0.439, -3.813e-3
0.440, -3.819e-3
0.441, -3.825e-3
0.442, -3.831e-3
0.443, -3.837e-3
0.444, -3.843e-3
0.445, -3.848e-3
0.446, -3.854e-3
0.447, -3.860e-3
0.448, -3.865e-3
0.449, -3.871e-3
0.450, -3.876e-3
0.451, -3.881e-3
0.452, -3.887e-3
0.453, -3.892e-3
0.454, -3.897e-3
0.455, -3.903e-3
0.456, -3.908e-3
0.457, -3.913e-3
0.458, -3.919e-3
0.459, -3.924e-3
0.460, -3.929e-3
0.461, -3.934e-3
0.462, -3.940e-3
0.463, -3.945e-3
0.464, -3.950e-3
0.465, -3.955e-3
0.466, -3.959e-3
0.467, -3.964e-3
0.468, -3.969e-3
0.469, -3.975e-3
0.470, -3.979e-3
0.471, -3.984e-3
0.472, -3.989e-3
0.473, -3.994e-3
0.474, -3.999e-3
0.475, -4.004e-3
0.476, -4.008e-3
0.477, -4.012e-3
0.478, -4.017e-3
0.479, -4.022e-3
0.480, -4.027e-3
0.481, -4.032e-3
0.482, -4.036e-3
0.483, -4.041e-3
0.484, -4.045e-3
0.485, -4.049e-3
0.486, -4.054e-3
0.487, -4.059e-3
0.488, -4.063e-3
0.489, -4.068e-3
0.490, -4.073e-3
0.491, -4.076e-3
0.492, -4.081e-3
0.493, -4.085e-3
0.494, -4.089e-3
0.495, -4.093e-3
0.496, -4.097e-3
0.497, -4.102e-3
0.498, -4.107e-3
0.499, -4.111e-3
0.500, -4.115e-3
0.501, -4.119e-3
0.502, -4.123e-3
0.503, -4.127e-3
0.504, -4.131e-3
0.505, -4.136e-3
0.506, -4.140e-3
0.507, -4.144e-3
0.508, -4.147e-3
0.509, -4.151e-3
0.510, -4.154e-3
0.511, -4.158e-3
0.512, -4.162e-3
0.513, -4.166e-3
0.514, -4.169e-3
0.515, -4.173e-3
0.516, -4.176e-3
0.517, -4.180e-3
0.518, -4.184e-3
0.519, -4.189e-3
0.520, -4.193e-3
0.521, -4.197e-3
0.522, -4.200e-3
0.523, -4.204e-3
0.524, -4.208e-3
0.525, -4.211e-3
0.526, -4.214e-3
0.527, -4.217e-3
0.528, -4.220e-3
0.529, -4.223e-3
0.530, -4.226e-3
0.531, -4.230e-3
0.532, -4.233e-3
0.533, -4.236e-3
0.534, -4.239e-3
0.535, -4.243e-3
0.536, -4.246e-3
0.537, -4.249e-3
0.538, -4.253e-3
0.539, -4.256e-3
0.540, -4.259e-3
0.541, -4.262e-3
0.542, -4.266e-3
0.543, -4.269e-3
0.544, -4.272e-3
0.545, -4.275e-3
0.546, -4.277e-3
0.547, -4.280e-3
0.548, -4.283e-3
0.549, -4.286e-3
0.550, -4.289e-3
0.551, -4.293e-3
0.552, -4.296e-3
0.553, -4.300e-3
0.554, -4.303e-3
0.555, -4.307e-3
0.556, -4.310e-3
0.557, -4.313e-3
0.558, -4.317e-3
0.559, -4.320e-3
0.560, -4.323e-3
0.561, -4.326e-3
0.562, -4.330e-3
0.563, -4.333e-3
0.564, -4.337e-3
0.565, -4.340e-3
0.566, -4.343e-3
0.567, -4.346e-3
0.568, -4.349e-3
0.569, -4.353e-3
0.570, -4.356e-3
0.571, -4.360e-3
0.572, -4.363e-3
0.573, -4.366e-3
0.574, -4.369e-3
0.575, -4.372e-3
0.576, -4.375e-3
0.577, -4.377e-3
0.578, -4.380e-3
0.579, -4.383e-3
0.580, -4.386e-3
0.581, -4.389e-3
0.582, -4.392e-3
0.583, -4.395e-3
0.584, -4.398e-3
0.585, -4.400e-3
0.586, -4.403e-3
0.587, -4.405e-3
0.588, -4.408e-3
0.589, -4.410e-3
0.590, -4.413e-3
0.591, -4.416e-3
0.592, -4.419e-3
0.593, -4.422e-3
0.594, -4.425e-3
0.595, -4.427e-3
0.596, -4.430e-3
0.597, -4.433e-3
0.598, -4.436e-3
0.599, -4.438e-3
0.600, -4.440e-3
0.601, -4.443e-3
0.602, -4.446e-3
0.603, -4.448e-3
0.604, -4.451e-3
0.605, -4.453e-3
0.606, -4.456e-3
0.607, -4.458e-3
0.608, -4.460e-3
0.609, -4.463e-3
0.610, -4.466e-3
0.611, -4.468e-3
0.612, -4.470e-3
0.613, -4.472e-3
0.614, -4.474e-3
0.615, -4.477e-3
0.616, -4.479e-3
0.617, -4.481e-3
0.618, -4.484e-3
0.619, -4.487e-3
0.620, -4.489e-3
0.621, -4.492e-3
0.622, -4.495e-3
0.623, -4.498e-3
0.624, -4.501e-3
0.625, -4.503e-3
0.626, -4.505e-3
0.627, -4.508e-3
0.628, -4.511e-3
0.629, -4.513e-3
0.630, -4.515e-3
0.631, -4.517e-3
0.632, -4.519e-3
0.633, -4.521e-3
0.634, -4.524e-3
0.635, -4.525e-3
0.636, -4.528e-3
0.637, -4.529e-3
0.638, -4.531e-3
0.639, -4.532e-3
0.640, -4.534e-3
0.641, -4.537e-3
0.642, -4.539e-3
0.643, -4.541e-3
0.644, -4.544e-3
0.645, -4.546e-3
0.646, -4.548e-3
0.647, -4.550e-3
0.648, -4.552e-3
0.649, -4.554e-3
0.650, -4.556e-3
0.651, -4.557e-3
0.652, -4.560e-3
0.653, -4.562e-3
0.654, -4.564e-3
0.655, -4.566e-3
0.656, -4.567e-3
0.657, -4.570e-3
0.658, -4.572e-3
0.659, -4.574e-3
0.660, -4.576e-3
0.661, -4.578e-3
0.662, -4.580e-3
0.663, -4.581e-3
0.664, -4.584e-3
0.665, -4.585e-3
0.666, -4.587e-3
0.667, -4.588e-3
0.668, -4.589e-3
0.669, -4.591e-3
0.670, -4.593e-3
0.671, -4.595e-3
0.672, -4.596e-3
0.673, -4.597e-3
0.674, -4.599e-3
0.675, -4.600e-3
0.676, -4.601e-3
0.677, -4.603e-3
0.678, -4.605e-3
0.679, -4.606e-3
0.680, -4.608e-3
0.681, -4.609e-3
0.682, -4.611e-3
0.683, -4.613e-3
0.684, -4.615e-3
0.685, -4.616e-3
0.686, -4.618e-3
0.687, -4.619e-3
0.688, -4.621e-3
0.689, -4.622e-3
0.690, -4.623e-3
0.691, -4.625e-3
0.692, -4.627e-3
0.693, -4.628e-3
0.694, -4.630e-3
0.695, -4.631e-3
0.696, -4.632e-3
0.697, -4.633e-3
0.698, -4.634e-3
0.699, -4.636e-3
0.700, -4.637e-3
0.701, -4.637e-3
0.702, -4.639e-3
0.703, -4.640e-3
0.704, -4.641e-3
0.705, -4.642e-3
0.706, -4.643e-3
0.707, -4.644e-3
0.708, -4.645e-3
0.709, -4.646e-3
0.710, -4.647e-3
0.711, -4.648e-3
0.712, -4.649e-3
0.713, -4.651e-3
0.714, -4.651e-3
0.715, -4.652e-3
0.716, -4.653e-3
0.717, -4.654e-3
0.718, -4.655e-3
0.719, -4.656e-3
0.720, -4.657e-3
0.721, -4.658e-3
0.722, -4.659e-3
0.723, -4.660e-3
0.724, -4.662e-3
0.725, -4.663e-3
0.726, -4.664e-3
0.727, -4.665e-3
0.728, -4.665e-3
0.729, -4.666e-3
0.730, -4.666e-3
0.731, -4.667e-3
0.732, -4.668e-3
0.733, -4.668e-3
0.734, -4.669e-3
0.735, -4.669e-3
0.736, -4.669e-3
0.737, -4.670e-3
0.738, -4.671e-3
0.739, -4.672e-3
0.740, -4.672e-3
0.741, -4.673e-3
0.742, -4.674e-3
0.743, -4.675e-3
0.744, -4.676e-3
0.745, -4.676e-3
0.746, -4.677e-3
0.747, -4.678e-3
0.748, -4.678e-3
0.749, -4.679e-3
0.750, -4.680e-3
0.751, -4.681e-3
0.752, -4.682e-3
0.753, -4.683e-3
0.754, -4.684e-3
0.755, -4.684e-3
0.756, -4.686e-3
0.757, -4.686e-3
0.758, -4.687e-3
0.759, -4.687e-3
0.760, -4.688e-3
0.761, -4.689e-3
0.762, -4.690e-3
0.763, -4.690e-3
0.764, -4.691e-3
0.765, -4.691e-3
0.766, -4.691e-3
0.767, -4.691e-3
0.768, -4.692e-3
0.769, -4.693e-3
0.770, -4.693e-3
0.771, -4.693e-3
0.772, -4.694e-3
0.773, -4.695e-3
0.774, -4.695e-3
0.775, -4.696e-3
0.776, -4.696e-3
0.777, -4.696e-3
0.778, -4.697e-3
0.779, -4.697e-3
0.780, -4.698e-3
0.781, -4.699e-3
0.782, -4.699e-3
0.783, -4.700e-3
0.784, -4.700e-3
0.785, -4.701e-3
0.786, -4.701e-3
0.787, -4.702e-3
0.788, -4.703e-3
0.789, -4.703e-3
0.790, -4.702e-3
0.791, -4.702e-3
0.792, -4.702e-3
0.793, -4.702e-3
0.794, -4.703e-3
0.795, -4.704e-3
0.796, -4.704e-3
0.797, -4.704e-3
0.798, -4.704e-3
0.799, -4.705e-3
0.800, -4.706e-3
0.801, -4.705e-3
0.802, -4.706e-3
0.803, -4.706e-3
0.804, -4.705e-3
0.805, -4.704e-3
0.806, -4.705e-3
0.807, -4.705e-3
0.808, -4.706e-3
0.809, -4.706e-3
0.810, -4.707e-3
0.811, -4.708e-3
0.812, -4.710e-3
0.813, -4.711e-3
0.814, -4.712e-3
0.815, -4.713e-3
0.816, -4.714e-3
0.817, -4.715e-3
0.818, -4.716e-3
0.819, -4.718e-3
0.820, -4.719e-3
0.821, -4.720e-3
0.822, -4.721e-3
0.823, -4.722e-3
0.824, -4.724e-3
0.825, -4.725e-3
0.826, -4.724e-3
0.827, -4.724e-3
0.828, -4.725e-3
0.829, -4.726e-3
0.830, -4.727e-3
0.831, -4.729e-3
0.832, -4.730e-3
0.833, -4.731e-3
0.834, -4.732e-3
0.835, -4.733e-3
0.836, -4.733e-3
0.837, -4.735e-3
0.838, -4.736e-3
0.839, -4.737e-3
0.840, -4.739e-3
0.841, -4.740e-3
0.842, -4.742e-3
0.843, -4.744e-3
0.844, -4.746e-3
0.845, -4.748e-3
0.846, -4.750e-3
0.847, -4.751e-3
0.848, -4.753e-3
0.849, -4.755e-3
0.850, -4.758e-3
0.851, -4.761e-3
0.852, -4.764e-3
0.853, -4.765e-3
0.854, -4.766e-3
0.855, -4.767e-3
0.856, -4.769e-3
0.857, -4.771e-3
0.858, -4.773e-3
0.859, -4.775e-3
0.860, -4.778e-3
0.861, -4.779e-3
0.862, -4.782e-3
0.863, -4.784e-3
0.864, -4.787e-3
0.865, -4.790e-3
0.866, -4.792e-3
0.867, -4.794e-3
0.868, -4.796e-3
0.869, -4.798e-3
0.870, -4.800e-3
0.871, -4.803e-3
0.872, -4.805e-3
0.873, -4.807e-3
0.874, -4.809e-3
0.875, -4.810e-3
0.876, -4.812e-3
0.877, -4.814e-3
0.878, -4.816e-3
0.879, -4.819e-3
0.880, -4.821e-3
0.881, -4.823e-3
0.882, -4.826e-3
0.883, -4.828e-3
0.884, -4.831e-3
0.885, -4.833e-3
0.886, -4.835e-3
0.887, -4.837e-3
0.888, -4.839e-3
0.889, -4.842e-3
0.890, -4.844e-3
0.891, -4.847e-3
0.892, -4.849e-3
0.893, -4.851e-3
0.894, -4.853e-3
0.895, -4.856e-3
0.896, -4.858e-3
0.897, -4.860e-3
0.898, -4.862e-3
0.899, -4.865e-3
0.900, -4.867e-3
0.901, -4.869e-3
0.902, -4.871e-3
0.903, -4.873e-3
0.904, -4.876e-3
0.905, -4.878e-3
0.906, -4.880e-3
0.907, -4.882e-3
0.908, -4.884e-3
0.909, -4.887e-3
0.910, -4.889e-3
0.911, -4.890e-3
0.912, -4.892e-3
0.913, -4.894e-3
0.914, -4.897e-3
0.915, -4.900e-3
0.916, -4.903e-3
0.917, -4.905e-3
0.918, -4.906e-3
0.919, -4.908e-3
0.920, -4.911e-3
0.921, -4.913e-3
0.922, -4.917e-3
0.923, -4.920e-3
0.924, -4.923e-3
0.925, -4.925e-3
0.926, -4.928e-3
0.927, -4.932e-3
0.928, -4.934e-3
0.929, -4.937e-3
0.930, -4.940e-3
0.931, -4.944e-3
0.932, -4.946e-3
0.933, -4.948e-3
0.934, -4.951e-3
0.935, -4.954e-3
0.936, -4.959e-3
0.937, -4.964e-3
0.938, -4.967e-3
0.939, -4.971e-3
0.940, -4.975e-3
0.941, -4.979e-3
0.942, -4.983e-3
0.943, -4.986e-3
0.944, -4.990e-3
0.945, -4.993e-3
0.946, -4.996e-3
0.947, -5.000e-3
0.948, -5.004e-3
0.949, -5.006e-3
0.950, -5.009e-3
0.951, -5.013e-3
0.952, -5.016e-3
0.953, -5.019e-3
0.954, -5.022e-3
0.955, -5.026e-3
0.956, -5.029e-3
0.957, -5.032e-3
0.958, -5.035e-3
0.959, -5.038e-3
0.960, -5.041e-3
0.961, -5.044e-3
0.962, -5.047e-3
0.963, -5.050e-3
0.964, -5.053e-3
0.965, -5.056e-3
0.966, -5.060e-3
0.967, -5.064e-3
0.968, -5.067e-3
0.969, -5.070e-3
0.970, -5.074e-3
0.971, -5.077e-3
0.972, -5.081e-3
0.973, -5.084e-3
0.974, -5.088e-3
0.975, -5.091e-3
0.976, -5.095e-3
0.977, -5.099e-3
0.978, -5.103e-3
0.979, -5.107e-3
0.980, -5.111e-3
0.981, -5.115e-3
0.982, -5.119e-3
0.983, -5.123e-3
0.984, -5.127e-3
0.985, -5.132e-3
0.986, -5.135e-3
0.987, -5.140e-3
0.988, -5.144e-3
0.989, -5.147e-3
0.990, -5.151e-3
0.991, -5.156e-3
0.992, -5.160e-3
0.993, -5.164e-3
0.994, -5.168e-3
0.995, -5.172e-3
0.996, -5.176e-3
0.997, -5.180e-3
0.998, -5.185e-3
0.999, -5.189e-3
1.000, -5.192e-3
1.001, -5.197e-3
1.002, -5.201e-3
1.003, -5.206e-3
1.004, -5.210e-3
1.005, -5.215e-3
1.006, -5.219e-3
1.007, -5.224e-3
1.008, -5.229e-3
1.009, -5.234e-3
1.010, -5.239e-3
1.011, -5.243e-3
1.012, -5.248e-3
1.013, -5.252e-3
1.014, -5.257e-3
1.015, -5.262e-3
1.016, -5.267e-3
1.017, -5.271e-3
1.018, -5.276e-3
1.019, -5.280e-3
1.020, -5.285e-3
1.021, -5.289e-3
1.022, -5.295e-3
1.023, -5.299e-3
1.024, -5.305e-3
1.025, -5.310e-3
1.026, -5.315e-3
1.027, -5.321e-3
1.028, -5.326e-3
1.029, -5.330e-3
1.030, -5.335e-3
1.031, -5.340e-3
1.032, -5.346e-3
1.033, -5.350e-3
1.034, -5.355e-3
1.035, -5.361e-3
1.036, -5.366e-3
1.037, -5.371e-3
1.038, -5.376e-3
1.039, -5.381e-3
1.040, -5.386e-3
1.041, -5.391e-3
1.042, -5.397e-3
1.043, -5.402e-3
1.044, -5.409e-3
1.045, -5.414e-3
1.046, -5.418e-3
1.047, -5.423e-3
1.048, -5.428e-3
1.049, -5.434e-3
1.050, -5.439e-3
1.051, -5.444e-3
1.052, -5.449e-3
1.053, -5.454e-3
1.054, -5.459e-3
1.055, -5.464e-3
1.056, -5.469e-3
1.057, -5.474e-3
1.058, -5.479e-3
1.059, -5.485e-3
1.060, -5.490e-3
1.061, -5.495e-3
1.062, -5.501e-3
1.063, -5.506e-3
1.064, -5.511e-3
1.065, -5.516e-3
1.066, -5.522e-3
1.067, -5.526e-3
1.068, -5.532e-3
1.069, -5.537e-3
1.070, -5.542e-3
1.071, -5.547e-3
1.072, -5.552e-3
1.073, -5.557e-3
1.074, -5.562e-3
1.075, -5.567e-3
1.076, -5.572e-3
1.077, -5.577e-3
1.078, -5.582e-3
1.079, -5.587e-3
1.080, -5.592e-3
1.081, -5.596e-3
1.082, -5.601e-3
1.083, -5.606e-3
1.084, -5.611e-3
1.085, -5.616e-3
1.086, -5.621e-3
1.087, -5.626e-3
1.088, -5.630e-3
1.089, -5.635e-3
1.090, -5.641e-3
1.091, -5.645e-3
1.092, -5.650e-3
1.093, -5.655e-3
1.094, -5.660e-3
1.095, -5.666e-3
1.096, -5.670e-3
1.097, -5.675e-3
1.098, -5.680e-3
1.099, -5.685e-3
1.100, -5.647e-3
1.099, -5.520e-3
1.098, -5.391e-3
1.097, -5.266e-3
1.096, -5.144e-3
1.095, -5.025e-3
1.094, -4.909e-3
1.093, -4.795e-3
1.092, -4.683e-3
1.091, -4.571e-3
1.090, -4.463e-3
1.089, -4.357e-3
1.088, -4.253e-3
1.087, -4.150e-3
1.086, -4.049e-3
1.085, -3.950e-3
1.084, -3.852e-3
1.083, -3.755e-3
1.082, -3.660e-3
1.081, -3.567e-3
1.080, -3.475e-3
1.079, -3.386e-3
1.078, -3.297e-3
1.077, -3.210e-3
1.076, -3.124e-3
1.075, -3.037e-3
1.074, -2.953e-3
1.073, -2.870e-3
1.072, -2.789e-3
1.071, -2.709e-3
1.070, -2.629e-3
1.069, -2.551e-3
1.068, -2.474e-3
1.067, -2.398e-3
1.066, -2.323e-3
1.065, -2.248e-3
1.064, -2.175e-3
1.063, -2.103e-3
1.062, -2.032e-3
1.061, -1.962e-3
1.060, -1.893e-3
1.059, -1.826e-3
1.058, -1.758e-3
1.057, -1.692e-3
1.056, -1.626e-3
1.055, -1.561e-3
1.054, -1.497e-3
1.053, -1.433e-3
1.052, -1.370e-3
1.051, -1.309e-3
1.050, -1.248e-3
1.049, -1.188e-3
1.048, -1.128e-3
1.047, -1.069e-3
1.046, -1.011e-3
1.045, -9.537e-4
1.044, -8.972e-4
1.043, -8.414e-4
1.042, -7.859e-4
1.041, -7.314e-4
1.040, -6.766e-4
1.039, -6.231e-4
1.038, -5.707e-4
1.037, -5.184e-4
1.036, -4.674e-4
1.035, -4.165e-4
1.034, -3.660e-4
1.033, -3.174e-4
1.032, -2.691e-4
1.031, -2.204e-4
1.030, -1.722e-4
1.029, -1.247e-4
1.028, -7.817e-5
1.027, -3.240e-5
1.026, 1.364e-5
1.025, 5.876e-5
1.024, 1.048e-4
1.023, 1.495e-4
1.022, 1.927e-4
1.021, 2.358e-4
1.020, 2.784e-4
1.019, 3.202e-4
1.018, 3.619e-4
1.017, 4.034e-4
1.016, 4.442e-4
1.015, 4.844e-4
1.014, 5.241e-4
1.013, 5.635e-4
1.012, 6.026e-4
1.011, 6.407e-4
1.010, 6.784e-4
1.009, 7.159e-4
1.008, 7.530e-4
1.007, 7.898e-4
1.006, 8.261e-4
1.005, 8.624e-4
1.004, 8.990e-4
1.003, 9.341e-4
1.002, 9.687e-4
1.001, 1.003e-3
1.000, 1.037e-3
0.999, 1.070e-3
0.998, 1.103e-3
0.997, 1.136e-3
0.996, 1.169e-3
0.995, 1.201e-3
0.994, 1.232e-3
0.993, 1.263e-3
0.992, 1.294e-3
0.991, 1.325e-3
0.990, 1.355e-3
0.989, 1.385e-3
0.988, 1.415e-3
0.987, 1.444e-3
0.986, 1.472e-3
0.985, 1.501e-3
0.984, 1.529e-3
0.983, 1.558e-3
0.982, 1.585e-3
0.981, 1.613e-3
0.980, 1.640e-3
0.979, 1.667e-3
0.978, 1.694e-3
0.977, 1.721e-3
0.976, 1.746e-3
0.975, 1.772e-3
0.974, 1.797e-3
0.973, 1.822e-3
0.972, 1.847e-3
0.971, 1.871e-3
0.970, 1.896e-3
0.969, 1.920e-3
0.968, 1.943e-3
0.967, 1.967e-3
0.966, 1.990e-3
0.965, 2.013e-3
0.964, 2.035e-3
0.963, 2.057e-3
0.962, 2.080e-3
0.961, 2.102e-3
0.960, 2.123e-3
0.959, 2.144e-3
0.958, 2.165e-3
0.957, 2.186e-3
0.956, 2.207e-3
0.955, 2.227e-3
0.954, 2.247e-3
0.953, 2.267e-3
0.952, 2.287e-3
0.951, 2.306e-3
0.950, 2.325e-3
0.949, 2.344e-3
0.948, 2.363e-3
0.947, 2.382e-3
0.946, 2.400e-3
0.945, 2.418e-3
0.944, 2.436e-3
0.943, 2.455e-3
0.942, 2.472e-3
0.941, 2.490e-3
0.940, 2.507e-3
0.939, 2.524e-3
0.938, 2.541e-3
0.937, 2.557e-3
0.936, 2.573e-3
0.935, 2.589e-3
0.934, 2.605e-3
0.933, 2.620e-3
0.932, 2.636e-3
0.931, 2.651e-3
0.930, 2.666e-3
0.929, 2.681e-3
0.928, 2.695e-3
0.927, 2.710e-3
0.926, 2.724e-3
0.925, 2.738e-3
0.924, 2.752e-3
0.923, 2.766e-3
0.922, 2.780e-3
0.921, 2.794e-3
0.920, 2.807e-3
0.919, 2.819e-3
0.918, 2.831e-3
0.917, 2.844e-3
0.916, 2.857e-3
0.915, 2.869e-3
0.914, 2.881e-3
0.913, 2.893e-3
0.912, 2.905e-3
0.911, 2.917e-3
0.910, 2.928e-3
0.909, 2.940e-3
0.908, 2.951e-3
0.907, 2.962e-3
0.906, 2.972e-3
0.905, 2.983e-3
0.904, 2.993e-3
0.903, 3.004e-3
0.902, 3.014e-3
0.901, 3.024e-3
0.900, 3.034e-3
0.899, 3.043e-3
0.898, 3.053e-3
0.897, 3.062e-3
0.896, 3.071e-3
0.895, 3.080e-3
0.894, 3.089e-3
0.893, 3.098e-3
0.892, 3.107e-3
0.891, 3.116e-3
0.890, 3.124e-3
0.889, 3.133e-3
0.888, 3.140e-3
0.887, 3.149e-3
0.886, 3.156e-3
0.885, 3.164e-3
0.884, 3.172e-3
0.883, 3.179e-3
0.882, 3.186e-3
0.881, 3.193e-3
0.880, 3.200e-3
0.879, 3.207e-3
0.878, 3.214e-3
0.877, 3.222e-3
0.876, 3.229e-3
0.875, 3.235e-3
0.874, 3.241e-3
0.873, 3.247e-3
0.872, 3.253e-3
0.871, 3.260e-3
0.870, 3.266e-3
0.869, 3.271e-3
0.868, 3.277e-3
0.867, 3.283e-3
0.866, 3.288e-3
0.865, 3.293e-3
0.864, 3.298e-3
0.863, 3.302e-3
0.862, 3.307e-3
0.861, 3.312e-3
0.860, 3.317e-3
0.859, 3.321e-3
0.858, 3.325e-3
0.857, 3.329e-3
0.856, 3.333e-3
0.855, 3.337e-3
0.854, 3.341e-3
0.853, 3.345e-3
0.852, 3.349e-3
0.851, 3.352e-3
0.850, 3.356e-3
0.849, 3.359e-3
0.848, 3.362e-3
0.847, 3.365e-3
0.846, 3.368e-3
0.845, 3.372e-3
0.844, 3.375e-3
0.843, 3.377e-3
0.842, 3.380e-3
0.841, 3.382e-3
0.840, 3.384e-3
0.839, 3.386e-3
0.838, 3.388e-3
0.837, 3.391e-3
0.836, 3.393e-3
0.835, 3.395e-3
0.834, 3.397e-3
0.833, 3.399e-3
0.832, 3.401e-3
0.831, 3.402e-3
0.830, 3.403e-3
0.829, 3.405e-3
0.828, 3.407e-3
0.827, 3.409e-3
0.826, 3.410e-3
0.825, 3.411e-3
0.824, 3.412e-3
0.823, 3.414e-3
0.822, 3.414e-3
0.821, 3.416e-3
0.820, 3.417e-3
0.819, 3.420e-3
0.818, 3.421e-3
0.817, 3.422e-3
0.816, 3.422e-3
0.815, 3.423e-3
0.814, 3.424e-3
0.813, 3.425e-3
0.812, 3.426e-3
0.811, 3.426e-3
0.810, 3.427e-3
0.809, 3.427e-3
0.808, 3.428e-3
0.807, 3.428e-3
0.806, 3.429e-3
0.805, 3.429e-3
0.804, 3.429e-3
0.803, 3.430e-3
0.802, 3.430e-3
0.801, 3.430e-3
0.800, 3.430e-3
0.799, 3.431e-3
0.798, 3.430e-3
0.797, 3.430e-3
0.796, 3.430e-3
0.795, 3.430e-3
0.794, 3.431e-3
0.793, 3.431e-3
0.792, 3.430e-3
0.791, 3.430e-3
0.790, 3.430e-3
0.789, 3.429e-3
0.788, 3.429e-3
0.787, 3.429e-3
0.786, 3.429e-3
0.785, 3.428e-3
0.784, 3.428e-3
0.783, 3.427e-3
0.782, 3.427e-3
0.781, 3.426e-3
0.780, 3.426e-3
0.779, 3.425e-3
0.778, 3.425e-3
0.777, 3.424e-3
0.776, 3.424e-3
0.775, 3.423e-3
0.774, 3.423e-3
0.773, 3.422e-3
0.772, 3.421e-3
0.771, 3.420e-3
0.770, 3.419e-3
0.769, 3.419e-3
0.768, 3.418e-3
0.767, 3.417e-3
0.766, 3.416e-3
0.765, 3.415e-3
0.764, 3.415e-3
0.763, 3.414e-3
0.762, 3.414e-3
0.761, 3.413e-3
0.760, 3.412e-3
0.759, 3.411e-3
0.758, 3.410e-3
0.757, 3.410e-3
0.756, 3.409e-3
0.755, 3.408e-3
0.754, 3.408e-3
0.753, 3.407e-3
0.752, 3.407e-3
0.751, 3.406e-3
0.750, 3.405e-3
0.749, 3.404e-3
0.748, 3.403e-3
0.747, 3.402e-3
0.746, 3.401e-3
0.745, 3.400e-3
0.744, 3.399e-3
0.743, 3.399e-3
0.742, 3.398e-3
0.741, 3.397e-3
0.740, 3.396e-3
0.739, 3.395e-3
0.738, 3.395e-3
0.737, 3.394e-3
0.736, 3.393e-3
0.735, 3.392e-3
0.734, 3.391e-3
0.733, 3.391e-3
0.732, 3.391e-3
0.731, 3.390e-3
0.730, 3.390e-3
0.729, 3.389e-3
0.728, 3.389e-3
0.727, 3.388e-3
0.726, 3.388e-3
0.725, 3.388e-3
0.724, 3.387e-3
0.723, 3.387e-3
0.722, 3.387e-3
0.721, 3.386e-3
0.720, 3.385e-3
0.719, 3.385e-3
0.718, 3.384e-3
0.717, 3.384e-3
0.716, 3.385e-3
0.715, 3.384e-3
0.714, 3.384e-3
0.713, 3.384e-3
0.712, 3.383e-3
0.711, 3.383e-3
0.710, 3.383e-3
0.709, 3.383e-3
0.708, 3.383e-3
0.707, 3.383e-3
0.706, 3.382e-3
0.705, 3.382e-3
0.704, 3.382e-3
0.703, 3.382e-3
0.702, 3.382e-3
0.701, 3.382e-3
0.700, 3.382e-3
0.699, 3.382e-3
0.698, 3.382e-3
0.697, 3.382e-3
0.696, 3.382e-3
0.695, 3.382e-3
0.694, 3.382e-3
0.693, 3.381e-3
0.692, 3.382e-3
0.691, 3.382e-3
0.690, 3.382e-3
0.689, 3.382e-3
0.688, 3.382e-3
0.687, 3.382e-3
0.686, 3.382e-3
0.685, 3.382e-3
0.684, 3.383e-3
0.683, 3.383e-3
0.682, 3.383e-3
0.681, 3.383e-3
0.680, 3.383e-3
0.679, 3.383e-3
0.678, 3.384e-3
0.677, 3.384e-3
0.676, 3.385e-3
0.675, 3.385e-3
0.674, 3.385e-3
0.673, 3.385e-3
0.672, 3.386e-3
0.671, 3.386e-3
0.670, 3.386e-3
0.669, 3.386e-3
0.668, 3.387e-3
0.667, 3.387e-3
0.666, 3.388e-3
0.665, 3.388e-3
0.664, 3.389e-3
0.663, 3.390e-3
0.662, 3.390e-3
0.661, 3.390e-3
0.660, 3.391e-3
0.659, 3.391e-3
0.658, 3.392e-3
0.657, 3.392e-3
0.656, 3.393e-3
0.655, 3.394e-3
0.654, 3.394e-3
0.653, 3.395e-3
0.652, 3.396e-3
0.651, 3.396e-3
0.650, 3.397e-3
0.649, 3.398e-3
0.648, 3.398e-3
0.647, 3.399e-3
0.646, 3.400e-3
0.645, 3.401e-3
0.644, 3.401e-3
0.643, 3.401e-3
0.642, 3.402e-3
0.641, 3.403e-3
0.640, 3.404e-3
0.639, 3.405e-3
0.638, 3.405e-3
0.637, 3.406e-3
0.636, 3.407e-3
0.635, 3.407e-3
0.634, 3.408e-3
0.633, 3.409e-3
0.632, 3.409e-3
0.631, 3.410e-3
0.630, 3.411e-3
0.629, 3.412e-3
0.628, 3.413e-3
0.627, 3.414e-3
0.626, 3.415e-3
0.625, 3.416e-3
0.624, 3.417e-3
0.623, 3.418e-3
0.622, 3.418e-3
0.621, 3.419e-3
0.620, 3.421e-3
0.619, 3.422e-3
0.618, 3.423e-3
0.617, 3.424e-3
0.616, 3.425e-3
0.615, 3.426e-3
0.614, 3.427e-3
0.613, 3.428e-3
0.612, 3.429e-3
0.611, 3.430e-3
0.610, 3.431e-3
0.609, 3.433e-3
0.608, 3.434e-3
0.607, 3.435e-3
0.606, 3.437e-3
0.605, 3.438e-3
0.604, 3.439e-3
0.603, 3.440e-3
0.602, 3.442e-3
0.601, 3.443e-3
0.600, 3.444e-3
0.599, 3.446e-3
0.598, 3.447e-3
0.597, 3.448e-3
0.596, 3.450e-3
0.595, 3.451e-3
0.594, 3.453e-3
0.593, 3.454e-3
0.592, 3.455e-3
0.591, 3.456e-3
0.590, 3.458e-3
0.589, 3.459e-3
0.588, 3.461e-3
0.587, 3.462e-3
0.586, 3.463e-3
0.585, 3.464e-3
0.584, 3.465e-3
0.583, 3.467e-3
0.582, 3.469e-3
0.581, 3.470e-3
0.580, 3.472e-3
0.579, 3.473e-3
0.578, 3.474e-3
0.577, 3.476e-3
0.576, 3.477e-3
0.575, 3.479e-3
0.574, 3.480e-3
0.573, 3.482e-3
0.572, 3.484e-3
0.571, 3.486e-3
0.570, 3.487e-3
0.569, 3.489e-3
0.568, 3.491e-3
0.567, 3.493e-3
0.566, 3.495e-3
0.565, 3.497e-3
0.564, 3.498e-3
0.563, 3.500e-3
0.562, 3.502e-3
0.561, 3.504e-3
0.560, 3.505e-3
0.559, 3.507e-3
0.558, 3.509e-3
0.557, 3.511e-3
0.556, 3.513e-3
0.555, 3.515e-3
0.554, 3.517e-3
0.553, 3.519e-3
0.552, 3.520e-3
0.551, 3.522e-3
0.550, 3.524e-3
0.549, 3.526e-3
0.548, 3.528e-3
0.547, 3.529e-3
0.546, 3.532e-3
0.545, 3.534e-3
0.544, 3.536e-3
0.543, 3.538e-3
0.542, 3.540e-3
0.541, 3.542e-3
0.540, 3.544e-3
0.539, 3.546e-3
0.538, 3.548e-3
0.537, 3.550e-3
0.536, 3.552e-3
0.535, 3.554e-3
0.534, 3.556e-3
0.533, 3.557e-3
0.532, 3.560e-3
0.531, 3.562e-3
0.530, 3.564e-3
0.529, 3.566e-3
0.528, 3.568e-3
0.527, 3.571e-3
0.526, 3.572e-3
0.525, 3.574e-3
0.524, 3.576e-3
0.523, 3.578e-3
0.522, 3.581e-3
0.521, 3.583e-3
0.520, 3.585e-3
0.519, 3.587e-3
0.518, 3.589e-3
0.517, 3.591e-3
0.516, 3.594e-3
0.515, 3.596e-3
0.514, 3.599e-3
0.513, 3.601e-3
0.512, 3.604e-3
0.511, 3.606e-3
0.510, 3.608e-3
0.509, 3.610e-3
0.508, 3.612e-3
0.507, 3.614e-3
0.506, 3.616e-3
0.505, 3.619e-3
0.504, 3.621e-3
0.503, 3.623e-3
0.502, 3.625e-3
0.501, 3.628e-3
0.500, 3.630e-3
0.499, 3.632e-3
0.498, 3.635e-3
0.497, 3.637e-3
0.496, 3.639e-3
0.495, 3.641e-3
0.494, 3.643e-3
0.493, 3.646e-3
0.492, 3.649e-3
0.491, 3.651e-3
0.490, 3.653e-3
0.489, 3.655e-3
0.488, 3.657e-3
0.487, 3.659e-3
0.486, 3.662e-3
0.485, 3.664e-3
0.484, 3.667e-3
0.483, 3.669e-3
0.482, 3.671e-3
0.481, 3.674e-3
0.480, 3.676e-3
0.479, 3.678e-3
0.478, 3.681e-3
0.477, 3.683e-3
0.476, 3.685e-3
0.475, 3.687e-3
0.474, 3.690e-3
0.473, 3.692e-3
0.472, 3.694e-3
0.471, 3.696e-3
0.470, 3.698e-3
0.469, 3.700e-3
0.468, 3.703e-3
0.467, 3.705e-3
0.466, 3.707e-3
0.465, 3.708e-3
0.464, 3.710e-3
0.463, 3.713e-3
0.462, 3.715e-3
0.461, 3.717e-3
0.460, 3.720e-3
0.459, 3.722e-3
0.458, 3.724e-3
0.457, 3.726e-3
0.456, 3.728e-3
0.455, 3.730e-3
0.454, 3.733e-3
0.453, 3.735e-3
0.452, 3.736e-3
0.451, 3.738e-3
0.450, 3.741e-3
0.449, 3.743e-3
0.448, 3.745e-3
0.447, 3.747e-3
0.446, 3.749e-3
0.445, 3.751e-3
0.444, 3.753e-3
0.443, 3.755e-3
0.442, 3.757e-3
0.441, 3.759e-3
0.440, 3.761e-3
0.439, 3.764e-3
0.438, 3.766e-3
0.437, 3.767e-3
0.436, 3.770e-3
0.435, 3.772e-3
0.434, 3.774e-3
0.433, 3.776e-3
0.432, 3.778e-3
0.431, 3.780e-3
0.430, 3.782e-3
0.429, 3.785e-3
0.428, 3.787e-3
0.427, 3.789e-3
0.426, 3.791e-3
0.425, 3.793e-3
0.424, 3.795e-3
0.423, 3.797e-3
0.422, 3.799e-3
0.421, 3.801e-3
0.420, 3.803e-3
0.419, 3.805e-3
0.418, 3.807e-3
0.417, 3.809e-3
0.416, 3.811e-3
0.415, 3.814e-3
0.414, 3.815e-3
0.413, 3.818e-3
0.412, 3.820e-3
0.411, 3.822e-3
0.410, 3.824e-3
0.409, 3.826e-3
0.408, 3.828e-3
0.407, 3.831e-3
0.406, 3.833e-3
0.405, 3.835e-3
0.404, 3.837e-3
0.403, 3.839e-3
0.402, 3.841e-3
0.401, 3.843e-3
0.400, 3.845e-3
0.399, 3.847e-3
0.398, 3.849e-3
0.397, 3.851e-3
0.396, 3.853e-3
0.395, 3.855e-3
0.394, 3.857e-3
0.393, 3.859e-3
0.392, 3.861e-3
0.391, 3.863e-3
0.390, 3.865e-3
0.389, 3.867e-3
0.388, 3.869e-3
0.387, 3.871e-3
0.386, 3.872e-3
0.385, 3.874e-3
0.384, 3.876e-3
0.383, 3.878e-3
0.382, 3.880e-3
0.381, 3.881e-3
0.380, 3.883e-3
0.379, 3.885e-3
0.378, 3.887e-3
0.377, 3.889e-3
0.376, 3.892e-3
0.375, 3.894e-3
0.374, 3.896e-3
0.373, 3.897e-3
0.372, 3.900e-3
0.371, 3.901e-3
0.370, 3.903e-3
0.369, 3.905e-3
0.368, 3.907e-3
0.367, 3.909e-3
0.366, 3.911e-3
0.365, 3.914e-3
0.364, 3.916e-3
0.363, 3.918e-3
0.362, 3.920e-3
0.361, 3.922e-3
0.360, 3.924e-3
0.359, 3.926e-3
0.358, 3.928e-3
0.357, 3.930e-3
0.356, 3.932e-3
0.355, 3.934e-3
0.354, 3.937e-3
0.353, 3.939e-3
0.352, 3.941e-3
0.351, 3.943e-3
0.350, 3.946e-3
0.349, 3.948e-3
0.348, 3.950e-3
0.347, 3.952e-3
0.346, 3.954e-3
0.345, 3.957e-3
0.344, 3.959e-3
0.343, 3.961e-3
0.342, 3.962e-3
0.341, 3.964e-3
0.340, 3.966e-3
0.339, 3.968e-3
0.338, 3.970e-3
0.337, 3.971e-3
0.336, 3.973e-3
0.335, 3.975e-3
0.334, 3.977e-3
0.333, 3.978e-3
0.332, 3.980e-3
0.331, 3.982e-3
0.330, 3.984e-3
0.329, 3.986e-3
0.328, 3.988e-3
0.327, 3.990e-3
0.326, 3.992e-3
0.325, 3.994e-3
0.324, 3.996e-3
0.323, 3.998e-3
0.322, 4.000e-3
0.321, 4.001e-3
0.320, 4.003e-3
0.319, 4.006e-3
0.318, 4.008e-3
0.317, 4.010e-3
0.316, 4.012e-3
0.315, 4.014e-3
0.314, 4.017e-3
0.313, 4.019e-3
0.312, 4.021e-3
0.311, 4.022e-3
0.310, 4.024e-3
0.309, 4.026e-3
0.308, 4.028e-3
0.307, 4.031e-3
0.306, 4.033e-3
0.305, 4.034e-3
0.304, 4.036e-3
0.303, 4.038e-3
0.302, 4.039e-3
0.301, 4.041e-3
0.300, 4.043e-3
0.299, 4.044e-3
0.298, 4.046e-3
0.297, 4.047e-3
0.296, 4.049e-3
0.295, 4.051e-3
0.294, 4.052e-3
0.293, 4.054e-3
0.292, 4.055e-3
0.291, 4.056e-3
0.290, 4.058e-3
0.289, 4.059e-3
0.288, 4.061e-3
0.287, 4.062e-3
0.286, 4.063e-3
0.285, 4.065e-3
0.284, 4.066e-3
0.283, 4.067e-3
0.282, 4.068e-3
0.281, 4.070e-3
0.280, 4.071e-3
0.279, 4.072e-3
0.278, 4.073e-3
0.277, 4.075e-3
0.276, 4.076e-3
0.275, 4.078e-3
0.274, 4.079e-3
0.273, 4.080e-3
0.272, 4.082e-3
0.271, 4.083e-3
0.270, 4.084e-3
0.269, 4.085e-3
0.268, 4.085e-3
0.267, 4.086e-3
0.266, 4.087e-3
0.265, 4.088e-3
0.264, 4.089e-3
0.263, 4.090e-3
0.262, 4.091e-3
0.261, 4.091e-3
0.260, 4.092e-3
0.259, 4.093e-3
0.258, 4.093e-3
0.257, 4.094e-3
0.256, 4.095e-3
0.255, 4.096e-3
0.254, 4.096e-3
0.253, 4.097e-3
0.252, 4.097e-3
0.251, 4.097e-3
0.250, 4.097e-3
0.249, 4.098e-3
0.248, 4.098e-3
0.247, 4.098e-3
0.246, 4.099e-3
0.245, 4.099e-3
0.244, 4.099e-3
0.243, 4.099e-3
0.242, 4.099e-3
0.241, 4.099e-3
0.240, 4.099e-3
0.239, 4.100e-3
0.238, 4.099e-3
0.237, 4.099e-3
0.236, 4.100e-3
0.235, 4.099e-3
0.234, 4.099e-3
0.233, 4.099e-3
0.232, 4.099e-3
0.231, 4.099e-3
0.230, 4.099e-3
0.229, 4.099e-3
0.228, 4.098e-3
0.227, 4.098e-3
0.226, 4.097e-3
0.225, 4.097e-3
0.224, 4.096e-3
0.223, 4.096e-3
0.222, 4.096e-3
0.221, 4.095e-3
0.220, 4.095e-3
0.219, 4.094e-3
0.218, 4.094e-3
0.217, 4.094e-3
0.216, 4.093e-3
0.215, 4.092e-3
0.214, 4.091e-3
0.213, 4.090e-3
0.212, 4.090e-3
0.211, 4.090e-3
0.210, 4.089e-3
0.209, 4.089e-3
0.208, 4.088e-3
0.207, 4.087e-3
0.206, 4.086e-3
0.205, 4.085e-3
0.204, 4.084e-3
0.203, 4.083e-3
0.202, 4.083e-3
0.201, 4.082e-3
0.200, 4.081e-3
0.199, 4.080e-3
0.198, 4.079e-3
0.197, 4.078e-3
0.196, 4.077e-3
0.195, 4.077e-3
0.194, 4.076e-3
0.193, 4.074e-3
0.192, 4.073e-3
0.191, 4.072e-3
0.190, 4.071e-3
0.189, 4.069e-3
0.188, 4.068e-3
0.187, 4.066e-3
0.186, 4.065e-3
0.185, 4.064e-3
0.184, 4.063e-3
0.183, 4.061e-3
0.182, 4.059e-3
0.181, 4.058e-3
0.180, 4.056e-3
0.179, 4.055e-3
0.178, 4.054e-3
0.177, 4.052e-3
0.176, 4.050e-3
0.175, 4.049e-3
0.174, 4.047e-3
0.173, 4.047e-3
0.172, 4.046e-3
0.171, 4.044e-3
0.170, 4.043e-3
0.169, 4.042e-3
0.168, 4.041e-3
0.167, 4.040e-3
0.166, 4.038e-3
0.165, 4.037e-3
0.164, 4.036e-3
0.163, 4.034e-3
0.162, 4.033e-3
0.161, 4.032e-3
0.160, 4.031e-3
0.159, 4.029e-3
0.158, 4.027e-3
0.157, 4.026e-3
0.156, 4.025e-3
0.155, 4.023e-3
0.154, 4.022e-3
0.153, 4.021e-3
0.152, 4.019e-3
0.151, 4.018e-3
0.150, 4.018e-3
0.149, 4.017e-3
0.148, 4.016e-3
0.147, 4.015e-3
0.146, 4.014e-3
0.145, 4.013e-3
0.144, 4.012e-3
0.143, 4.011e-3
0.142, 4.009e-3
0.141, 4.008e-3
0.140, 4.007e-3
0.139, 4.006e-3
0.138, 4.005e-3
0.137, 4.003e-3
0.136, 4.002e-3
0.135, 4.000e-3
0.134, 3.999e-3
0.133, 3.998e-3
0.132, 3.996e-3
0.131, 3.995e-3
0.130, 3.994e-3
0.129, 3.993e-3
0.128, 3.992e-3
0.127, 3.990e-3
0.126, 3.989e-3
0.125, 3.988e-3
0.124, 3.987e-3
0.123, 3.985e-3
0.122, 3.984e-3
0.121, 3.983e-3
0.120, 3.982e-3
0.119, 3.981e-3
0.118, 3.978e-3
0.117, 3.977e-3
0.116, 3.977e-3
0.115, 3.976e-3
0.114, 3.976e-3
0.113, 3.975e-3
0.112, 3.974e-3
0.111, 3.973e-3
0.110, 3.972e-3
0.109, 3.971e-3
0.108, 3.970e-3
0.107, 3.969e-3
0.106, 3.968e-3
0.105, 3.966e-3
0.104, 3.965e-3
0.103, 3.964e-3
0.102, 3.963e-3
0.101, 3.962e-3
0.100, 3.961e-3
0.099, 3.960e-3
0.098, 3.960e-3
0.097, 3.959e-3
0.096, 3.959e-3
0.095, 3.958e-3
0.094, 3.957e-3
0.093, 3.957e-3
0.092, 3.957e-3
0.091, 3.956e-3
0.090, 3.956e-3
0.089, 3.955e-3
0.088, 3.954e-3
0.087, 3.953e-3
0.086, 3.952e-3
0.085, 3.952e-3
0.084, 3.951e-3
0.083, 3.950e-3
0.082, 3.950e-3
0.081, 3.949e-3
0.080, 3.949e-3
0.079, 3.949e-3
0.078, 3.949e-3
0.077, 3.948e-3
0.076, 3.949e-3
0.075, 3.949e-3
0.074, 3.949e-3
0.073, 3.949e-3
0.072, 3.949e-3
0.071, 3.949e-3
0.070, 3.949e-3
0.069, 3.949e-3
0.068, 3.948e-3
0.067, 3.948e-3
0.066, 3.948e-3
0.065, 3.948e-3
0.064, 3.948e-3
0.063, 3.949e-3
0.062, 3.949e-3
0.061, 3.949e-3
0.060, 3.949e-3
0.059, 3.949e-3
0.058, 3.950e-3
0.057, 3.951e-3
0.056, 3.951e-3
0.055, 3.952e-3
0.054, 3.952e-3
0.053, 3.952e-3
0.052, 3.953e-3
0.051, 3.954e-3
0.050, 3.954e-3
0.049, 3.954e-3
0.048, 3.954e-3
0.047, 3.955e-3
0.046, 3.955e-3
0.045, 3.956e-3
0.044, 3.957e-3
0.043, 3.958e-3
0.042, 3.959e-3
0.041, 3.960e-3
0.040, 3.960e-3
0.039, 3.961e-3
0.038, 3.961e-3
0.037, 3.962e-3
0.036, 3.962e-3
0.035, 3.963e-3
0.034, 3.965e-3
0.033, 3.965e-3
0.032, 3.967e-3
0.031, 3.968e-3
0.030, 3.969e-3
0.029, 3.971e-3
0.028, 3.974e-3
0.027, 3.976e-3
0.026, 3.978e-3
0.025, 3.980e-3
0.024, 3.983e-3
0.023, 3.985e-3
0.022, 3.986e-3
0.021, 3.988e-3
0.020, 3.990e-3
0.019, 3.992e-3
0.018, 3.994e-3
0.017, 3.996e-3
0.016, 3.999e-3
0.015, 4.001e-3
0.014, 4.004e-3
0.013, 4.007e-3
0.012, 4.010e-3
0.011, 4.012e-3
0.010, 4.015e-3
0.009, 4.017e-3
0.008, 4.020e-3
0.007, 4.023e-3
0.006, 4.026e-3
0.005, 4.030e-3
0.004, 4.033e-3
0.003, 4.035e-3
0.002, 4.038e-3
0.001, 4.041e-3
0.000, 4.044e-3
-0.001, 4.048e-3
-0.002, 4.051e-3
-0.003, 4.054e-3
-0.004, 4.058e-3
-0.005, 4.061e-3
-0.006, 4.065e-3
-0.007, 4.068e-3
-0.008, 4.072e-3
-0.009, 4.075e-3
-0.010, 4.079e-3
-0.011, 4.083e-3
-0.012, 4.087e-3
-0.013, 4.090e-3
-0.014, 4.094e-3
-0.015, 4.098e-3
-0.016, 4.102e-3
-0.017, 4.106e-3
-0.018, 4.110e-3
-0.019, 4.115e-3
-0.020, 4.120e-3
-0.021, 4.125e-3
-0.022, 4.131e-3
-0.023, 4.136e-3
-0.024, 4.141e-3
-0.025, 4.146e-3
-0.026, 4.152e-3
-0.027, 4.157e-3
-0.028, 4.162e-3
-0.029, 4.167e-3
-0.030, 4.172e-3
-0.031, 4.177e-3
-0.032, 4.182e-3
-0.033, 4.188e-3
-0.034, 4.194e-3
-0.035, 4.200e-3
-0.036, 4.205e-3
-0.037, 4.211e-3
-0.038, 4.217e-3
-0.039, 4.222e-3
-0.040, 4.228e-3
-0.041, 4.234e-3
-0.042, 4.240e-3
-0.043, 4.247e-3
-0.044, 4.253e-3
-0.045, 4.259e-3
-0.046, 4.266e-3
-0.047, 4.272e-3
-0.048, 4.279e-3
-0.049, 4.286e-3
-0.050, 4.292e-3
-0.051, 4.299e-3
-0.052, 4.306e-3
-0.053, 4.313e-3
-0.054, 4.320e-3
-0.055, 4.327e-3
-0.056, 4.334e-3
-0.057, 4.341e-3
-0.058, 4.348e-3
-0.059, 4.355e-3
-0.060, 4.363e-3
-0.061, 4.370e-3
-0.062, 4.377e-3
-0.063, 4.385e-3
-0.064, 4.392e-3
-0.065, 4.399e-3
-0.066, 4.407e-3
-0.067, 4.415e-3
-0.068, 4.422e-3
-0.069, 4.431e-3
-0.070, 4.439e-3
-0.071, 4.447e-3
-0.072, 4.456e-3
-0.073, 4.464e-3
-0.074, 4.472e-3
-0.075, 4.480e-3
-0.076, 4.489e-3
-0.077, 4.498e-3
-0.078, 4.507e-3
-0.079, 4.515e-3
-0.080, 4.523e-3
-0.081, 4.533e-3
-0.082, 4.541e-3
-0.083, 4.551e-3
-0.084, 4.560e-3
-0.085, 4.569e-3
-0.086, 4.579e-3
-0.087, 4.588e-3
-0.088, 4.597e-3
-0.089, 4.606e-3
-0.090, 4.616e-3
-0.091, 4.626e-3
-0.092, 4.635e-3
-0.093, 4.645e-3
-0.094, 4.655e-3
-0.095, 4.665e-3
-0.096, 4.675e-3
-0.097, 4.685e-3
-0.098, 4.694e-3
-0.099, 4.704e-3
