Mar. 10, 2025   13:19:14
Cyclic Voltammetry
File: f:\catholicate college\new ruo2\ruo2 scr 0.001 [-0.1-1.1].txt
Data Source:  Experiment
Instrument Model:  CHI6087E
Header: 
Note: 

Init E (V) = -0.1
High E (V) = 1.1
Low E (V) = -0.1
Init P/N = P
Scan Rate (V/s) = 0.001
Segment = 4
Sample Interval (V) = 0.001
Quiet Time (sec) = 2
Sensitivity (A/V) = 0.01

Results:

Channel 1:
Segment 1:
Ep = 0.378V
ip = -5.211e-5A
Ah = -4.980e-3C

Segment 2:

Segment 3:
Ep = 0.371V
ip = -4.778e-5A
Ah = -4.020e-3C

Segment 4:
Ep = 0.338V
ip = 3.961e-6A
Ah = 3.655e-4C

Potential/V, Current/A

-0.100, 3.578e-3
-0.099, 3.014e-3
-0.098, 2.618e-3
-0.097, 2.315e-3
-0.096, 2.077e-3
-0.095, 1.881e-3
-0.094, 1.717e-3
-0.093, 1.575e-3
-0.092, 1.453e-3
-0.091, 1.346e-3
-0.090, 1.252e-3
-0.089, 1.167e-3
-0.088, 1.091e-3
-0.087, 1.021e-3
-0.086, 9.581e-4
-0.085, 8.996e-4
-0.084, 8.448e-4
-0.083, 7.948e-4
-0.082, 7.486e-4
-0.081, 7.056e-4
-0.080, 6.659e-4
-0.079, 6.286e-4
-0.078, 5.930e-4
-0.077, 5.599e-4
-0.076, 5.284e-4
-0.075, 4.987e-4
-0.074, 4.706e-4
-0.073, 4.444e-4
-0.072, 4.194e-4
-0.071, 3.955e-4
-0.070, 3.723e-4
-0.069, 3.508e-4
-0.068, 3.299e-4
-0.067, 3.111e-4
-0.066, 2.919e-4
-0.065, 2.741e-4
-0.064, 2.570e-4
-0.063, 2.404e-4
-0.062, 2.246e-4
-0.061, 2.094e-4
-0.060, 1.944e-4
-0.059, 1.807e-4
-0.058, 1.671e-4
-0.057, 1.540e-4
-0.056, 1.417e-4
-0.055, 1.296e-4
-0.054, 1.180e-4
-0.053, 1.063e-4
-0.052, 9.542e-5
-0.051, 8.453e-5
-0.050, 7.384e-5
-0.049, 6.381e-5
-0.048, 5.473e-5
-0.047, 4.560e-5
-0.046, 3.676e-5
-0.045, 2.814e-5
-0.044, 1.982e-5
-0.043, 1.193e-5
-0.042, 4.229e-6
-0.041, -3.448e-6
-0.040, -1.064e-5
-0.039, -1.797e-5
-0.038, -2.485e-5
-0.037, -3.148e-5
-0.036, -3.796e-5
-0.035, -4.413e-5
-0.034, -5.026e-5
-0.033, -5.636e-5
-0.032, -6.206e-5
-0.031, -6.761e-5
-0.030, -7.302e-5
-0.029, -7.840e-5
-0.028, -8.341e-5
-0.027, -8.864e-5
-0.026, -9.367e-5
-0.025, -9.825e-5
-0.024, -1.027e-4
-0.023, -1.074e-4
-0.022, -1.115e-4
-0.021, -1.155e-4
-0.020, -1.198e-4
-0.019, -1.239e-4
-0.018, -1.277e-4
-0.017, -1.318e-4
-0.016, -1.352e-4
-0.015, -1.389e-4
-0.014, -1.424e-4
-0.013, -1.458e-4
-0.012, -1.494e-4
-0.011, -1.525e-4
-0.010, -1.557e-4
-0.009, -1.590e-4
-0.008, -1.620e-4
-0.007, -1.651e-4
-0.006, -1.679e-4
-0.005, -1.708e-4
-0.004, -1.736e-4
-0.003, -1.761e-4
-0.002, -1.788e-4
-0.001, -1.814e-4
-0.000, -1.845e-4
0.001, -1.867e-4
0.002, -1.892e-4
0.003, -1.912e-4
0.004, -1.937e-4
0.005, -1.956e-4
0.006, -1.980e-4
0.007, -1.999e-4
0.008, -2.018e-4
0.009, -2.036e-4
0.010, -2.057e-4
0.011, -2.077e-4
0.012, -2.097e-4
0.013, -2.114e-4
0.014, -2.131e-4
0.015, -2.151e-4
0.016, -2.165e-4
0.017, -2.180e-4
0.018, -2.197e-4
0.019, -2.214e-4
0.020, -2.229e-4
0.021, -2.244e-4
0.022, -2.259e-4
0.023, -2.273e-4
0.024, -2.283e-4
0.025, -2.300e-4
0.026, -2.312e-4
0.027, -2.325e-4
0.028, -2.339e-4
0.029, -2.349e-4
0.030, -2.361e-4
0.031, -2.373e-4
0.032, -2.383e-4
0.033, -2.393e-4
0.034, -2.405e-4
0.035, -2.414e-4
0.036, -2.426e-4
0.037, -2.432e-4
0.038, -2.443e-4
0.039, -2.454e-4
0.040, -2.460e-4
0.041, -2.470e-4
0.042, -2.476e-4
0.043, -2.485e-4
0.044, -2.495e-4
0.045, -2.503e-4
0.046, -2.511e-4
0.047, -2.518e-4
0.048, -2.523e-4
0.049, -2.531e-4
0.050, -2.536e-4
0.051, -2.544e-4
0.052, -2.553e-4
0.053, -2.555e-4
0.054, -2.560e-4
0.055, -2.566e-4
0.056, -2.568e-4
0.057, -2.573e-4
0.058, -2.581e-4
0.059, -2.586e-4
0.060, -2.589e-4
0.061, -2.593e-4
0.062, -2.598e-4
0.063, -2.602e-4
0.064, -2.605e-4
0.065, -2.610e-4
0.066, -2.613e-4
0.067, -2.612e-4
0.068, -2.619e-4
0.069, -2.621e-4
0.070, -2.626e-4
0.071, -2.628e-4
0.072, -2.630e-4
0.073, -2.633e-4
0.074, -2.635e-4
0.075, -2.636e-4
0.076, -2.639e-4
0.077, -2.642e-4
0.078, -2.642e-4
0.079, -2.649e-4
0.080, -2.646e-4
0.081, -2.650e-4
0.082, -2.652e-4
0.083, -2.654e-4
0.084, -2.658e-4
0.085, -2.654e-4
0.086, -2.657e-4
0.087, -2.661e-4
0.088, -2.661e-4
0.089, -2.660e-4
0.090, -2.662e-4
0.091, -2.665e-4
0.092, -2.665e-4
0.093, -2.666e-4
0.094, -2.668e-4
0.095, -2.670e-4
0.096, -2.670e-4
0.097, -2.671e-4
0.098, -2.672e-4
0.099, -2.671e-4
0.100, -2.674e-4
0.101, -2.672e-4
0.102, -2.673e-4
0.103, -2.679e-4
0.104, -2.676e-4
0.105, -2.679e-4
0.106, -2.676e-4
0.107, -2.675e-4
0.108, -2.677e-4
0.109, -2.679e-4
0.110, -2.678e-4
0.111, -2.678e-4
0.112, -2.675e-4
0.113, -2.678e-4
0.114, -2.677e-4
0.115, -2.675e-4
0.116, -2.677e-4
0.117, -2.676e-4
0.118, -2.676e-4
0.119, -2.676e-4
0.120, -2.675e-4
0.121, -2.676e-4
0.122, -2.678e-4
0.123, -2.676e-4
0.124, -2.677e-4
0.125, -2.674e-4
0.126, -2.675e-4
0.127, -2.675e-4
0.128, -2.675e-4
0.129, -2.674e-4
0.130, -2.675e-4
0.131, -2.674e-4
0.132, -2.672e-4
0.133, -2.673e-4
0.134, -2.673e-4
0.135, -2.676e-4
0.136, -2.673e-4
0.137, -2.674e-4
0.138, -2.673e-4
0.139, -2.672e-4
0.140, -2.675e-4
0.141, -2.672e-4
0.142, -2.670e-4
0.143, -2.671e-4
0.144, -2.670e-4
0.145, -2.671e-4
0.146, -2.669e-4
0.147, -2.671e-4
0.148, -2.671e-4
0.149, -2.669e-4
0.150, -2.666e-4
0.151, -2.671e-4
0.152, -2.669e-4
0.153, -2.670e-4
0.154, -2.671e-4
0.155, -2.669e-4
0.156, -2.671e-4
0.157, -2.668e-4
0.158, -2.667e-4
0.159, -2.668e-4
0.160, -2.667e-4
0.161, -2.669e-4
0.162, -2.670e-4
0.163, -2.666e-4
0.164, -2.668e-4
0.165, -2.668e-4
0.166, -2.668e-4
0.167, -2.668e-4
0.168, -2.666e-4
0.169, -2.666e-4
0.170, -2.667e-4
0.171, -2.666e-4
0.172, -2.668e-4
0.173, -2.669e-4
0.174, -2.668e-4
0.175, -2.668e-4
0.176, -2.667e-4
0.177, -2.669e-4
0.178, -2.669e-4
0.179, -2.669e-4
0.180, -2.671e-4
0.181, -2.669e-4
0.182, -2.670e-4
0.183, -2.670e-4
0.184, -2.668e-4
0.185, -2.671e-4
0.186, -2.674e-4
0.187, -2.672e-4
0.188, -2.674e-4
0.189, -2.674e-4
0.190, -2.676e-4
0.191, -2.676e-4
0.192, -2.677e-4
0.193, -2.679e-4
0.194, -2.677e-4
0.195, -2.679e-4
0.196, -2.680e-4
0.197, -2.680e-4
0.198, -2.682e-4
0.199, -2.684e-4
0.200, -2.684e-4
0.201, -2.687e-4
0.202, -2.686e-4
0.203, -2.685e-4
0.204, -2.688e-4
0.205, -2.692e-4
0.206, -2.690e-4
0.207, -2.693e-4
0.208, -2.691e-4
0.209, -2.693e-4
0.210, -2.696e-4
0.211, -2.699e-4
0.212, -2.699e-4
0.213, -2.699e-4
0.214, -2.701e-4
0.215, -2.705e-4
0.216, -2.704e-4
0.217, -2.707e-4
0.218, -2.707e-4
0.219, -2.711e-4
0.220, -2.713e-4
0.221, -2.712e-4
0.222, -2.715e-4
0.223, -2.718e-4
0.224, -2.719e-4
0.225, -2.721e-4
0.226, -2.722e-4
0.227, -2.725e-4
0.228, -2.728e-4
0.229, -2.730e-4
0.230, -2.734e-4
0.231, -2.737e-4
0.232, -2.737e-4
0.233, -2.738e-4
0.234, -2.741e-4
0.235, -2.742e-4
0.236, -2.746e-4
0.237, -2.747e-4
0.238, -2.752e-4
0.239, -2.753e-4
0.240, -2.757e-4
0.241, -2.760e-4
0.242, -2.764e-4
0.243, -2.766e-4
0.244, -2.771e-4
0.245, -2.770e-4
0.246, -2.772e-4
0.247, -2.776e-4
0.248, -2.779e-4
0.249, -2.783e-4
0.250, -2.785e-4
0.251, -2.789e-4
0.252, -2.797e-4
0.253, -2.797e-4
0.254, -2.802e-4
0.255, -2.804e-4
0.256, -2.811e-4
0.257, -2.815e-4
0.258, -2.818e-4
0.259, -2.822e-4
0.260, -2.824e-4
0.261, -2.826e-4
0.262, -2.832e-4
0.263, -2.838e-4
0.264, -2.840e-4
0.265, -2.844e-4
0.266, -2.846e-4
0.267, -2.848e-4
0.268, -2.852e-4
0.269, -2.857e-4
0.270, -2.861e-4
0.271, -2.866e-4
0.272, -2.869e-4
0.273, -2.873e-4
0.274, -2.878e-4
0.275, -2.882e-4
0.276, -2.888e-4
0.277, -2.889e-4
0.278, -2.893e-4
0.279, -2.899e-4
0.280, -2.901e-4
0.281, -2.906e-4
0.282, -2.912e-4
0.283, -2.916e-4
0.284, -2.920e-4
0.285, -2.923e-4
0.286, -2.930e-4
0.287, -2.935e-4
0.288, -2.938e-4
0.289, -2.942e-4
0.290, -2.947e-4
0.291, -2.952e-4
0.292, -2.956e-4
0.293, -2.961e-4
0.294, -2.967e-4
0.295, -2.973e-4
0.296, -2.976e-4
0.297, -2.979e-4
0.298, -2.985e-4
0.299, -2.990e-4
0.300, -2.996e-4
0.301, -3.000e-4
0.302, -3.005e-4
0.303, -3.011e-4
0.304, -3.014e-4
0.305, -3.018e-4
0.306, -3.025e-4
0.307, -3.031e-4
0.308, -3.038e-4
0.309, -3.037e-4
0.310, -3.044e-4
0.311, -3.046e-4
0.312, -3.050e-4
0.313, -3.057e-4
0.314, -3.061e-4
0.315, -3.064e-4
0.316, -3.068e-4
0.317, -3.070e-4
0.318, -3.076e-4
0.319, -3.080e-4
0.320, -3.083e-4
0.321, -3.087e-4
0.322, -3.091e-4
0.323, -3.095e-4
0.324, -3.098e-4
0.325, -3.102e-4
0.326, -3.105e-4
0.327, -3.111e-4
0.328, -3.110e-4
0.329, -3.116e-4
0.330, -3.118e-4
0.331, -3.121e-4
0.332, -3.126e-4
0.333, -3.130e-4
0.334, -3.132e-4
0.335, -3.133e-4
0.336, -3.137e-4
0.337, -3.140e-4
0.338, -3.143e-4
0.339, -3.146e-4
0.340, -3.151e-4
0.341, -3.152e-4
0.342, -3.153e-4
0.343, -3.154e-4
0.344, -3.156e-4
0.345, -3.161e-4
0.346, -3.162e-4
0.347, -3.163e-4
0.348, -3.166e-4
0.349, -3.167e-4
0.350, -3.168e-4
0.351, -3.171e-4
0.352, -3.172e-4
0.353, -3.175e-4
0.354, -3.176e-4
0.355, -3.177e-4
0.356, -3.179e-4
0.357, -3.180e-4
0.358, -3.183e-4
0.359, -3.185e-4
0.360, -3.185e-4
0.361, -3.186e-4
0.362, -3.186e-4
0.363, -3.186e-4
0.364, -3.189e-4
0.365, -3.190e-4
0.366, -3.189e-4
0.367, -3.191e-4
0.368, -3.189e-4
0.369, -3.191e-4
0.370, -3.191e-4
0.371, -3.189e-4
0.372, -3.191e-4
0.373, -3.189e-4
0.374, -3.188e-4
0.375, -3.190e-4
0.376, -3.191e-4
0.377, -3.192e-4
0.378, -3.192e-4
0.379, -3.191e-4
0.380, -3.190e-4
0.381, -3.188e-4
0.382, -3.187e-4
0.383, -3.187e-4
0.384, -3.187e-4
0.385, -3.189e-4
0.386, -3.186e-4
0.387, -3.185e-4
0.388, -3.183e-4
0.389, -3.182e-4
0.390, -3.183e-4
0.391, -3.182e-4
0.392, -3.180e-4
0.393, -3.177e-4
0.394, -3.176e-4
0.395, -3.174e-4
0.396, -3.175e-4
0.397, -3.170e-4
0.398, -3.169e-4
0.399, -3.169e-4
0.400, -3.167e-4
0.401, -3.166e-4
0.402, -3.165e-4
0.403, -3.165e-4
0.404, -3.164e-4
0.405, -3.159e-4
0.406, -3.159e-4
0.407, -3.158e-4
0.408, -3.154e-4
0.409, -3.153e-4
0.410, -3.153e-4
0.411, -3.150e-4
0.412, -3.152e-4
0.413, -3.147e-4
0.414, -3.143e-4
0.415, -3.141e-4
0.416, -3.141e-4
0.417, -3.139e-4
0.418, -3.138e-4
0.419, -3.135e-4
0.420, -3.133e-4
0.421, -3.127e-4
0.422, -3.127e-4
0.423, -3.126e-4
0.424, -3.122e-4
0.425, -3.122e-4
0.426, -3.119e-4
0.427, -3.117e-4
0.428, -3.115e-4
0.429, -3.112e-4
0.430, -3.108e-4
0.431, -3.107e-4
0.432, -3.102e-4
0.433, -3.101e-4
0.434, -3.097e-4
0.435, -3.098e-4
0.436, -3.094e-4
0.437, -3.091e-4
0.438, -3.088e-4
0.439, -3.086e-4
0.440, -3.083e-4
0.441, -3.082e-4
0.442, -3.083e-4
0.443, -3.075e-4
0.444, -3.076e-4
0.445, -3.072e-4
0.446, -3.069e-4
0.447, -3.067e-4
0.448, -3.062e-4
0.449, -3.060e-4
0.450, -3.062e-4
0.451, -3.058e-4
0.452, -3.056e-4
0.453, -3.052e-4
0.454, -3.052e-4
0.455, -3.050e-4
0.456, -3.046e-4
0.457, -3.042e-4
0.458, -3.040e-4
0.459, -3.039e-4
0.460, -3.037e-4
0.461, -3.038e-4
0.462, -3.038e-4
0.463, -3.035e-4
0.464, -3.031e-4
0.465, -3.028e-4
0.466, -3.025e-4
0.467, -3.025e-4
0.468, -3.022e-4
0.469, -3.019e-4
0.470, -3.018e-4
0.471, -3.014e-4
0.472, -3.009e-4
0.473, -3.009e-4
0.474, -3.006e-4
0.475, -3.003e-4
0.476, -3.003e-4
0.477, -3.001e-4
0.478, -3.001e-4
0.479, -3.001e-4
0.480, -2.997e-4
0.481, -2.996e-4
0.482, -2.996e-4
0.483, -2.994e-4
0.484, -2.994e-4
0.485, -2.990e-4
0.486, -2.989e-4
0.487, -2.991e-4
0.488, -2.985e-4
0.489, -2.983e-4
0.490, -2.980e-4
0.491, -2.981e-4
0.492, -2.981e-4
0.493, -2.978e-4
0.494, -2.978e-4
0.495, -2.976e-4
0.496, -2.970e-4
0.497, -2.972e-4
0.498, -2.971e-4
0.499, -2.968e-4
0.500, -2.967e-4
0.501, -2.965e-4
0.502, -2.965e-4
0.503, -2.964e-4
0.504, -2.962e-4
0.505, -2.961e-4
0.506, -2.960e-4
0.507, -2.957e-4
0.508, -2.958e-4
0.509, -2.953e-4
0.510, -2.951e-4
0.511, -2.952e-4
0.512, -2.954e-4
0.513, -2.954e-4
0.514, -2.953e-4
0.515, -2.947e-4
0.516, -2.947e-4
0.517, -2.943e-4
0.518, -2.944e-4
0.519, -2.944e-4
0.520, -2.939e-4
0.521, -2.938e-4
0.522, -2.938e-4
0.523, -2.937e-4
0.524, -2.937e-4
0.525, -2.933e-4
0.526, -2.933e-4
0.527, -2.933e-4
0.528, -2.928e-4
0.529, -2.928e-4
0.530, -2.928e-4
0.531, -2.927e-4
0.532, -2.928e-4
0.533, -2.927e-4
0.534, -2.924e-4
0.535, -2.922e-4
0.536, -2.918e-4
0.537, -2.918e-4
0.538, -2.917e-4
0.539, -2.916e-4
0.540, -2.915e-4
0.541, -2.913e-4
0.542, -2.910e-4
0.543, -2.911e-4
0.544, -2.910e-4
0.545, -2.909e-4
0.546, -2.906e-4
0.547, -2.903e-4
0.548, -2.902e-4
0.549, -2.899e-4
0.550, -2.900e-4
0.551, -2.897e-4
0.552, -2.894e-4
0.553, -2.894e-4
0.554, -2.891e-4
0.555, -2.888e-4
0.556, -2.888e-4
0.557, -2.887e-4
0.558, -2.884e-4
0.559, -2.882e-4
0.560, -2.883e-4
0.561, -2.882e-4
0.562, -2.878e-4
0.563, -2.879e-4
0.564, -2.877e-4
0.565, -2.872e-4
0.566, -2.873e-4
0.567, -2.869e-4
0.568, -2.868e-4
0.569, -2.865e-4
0.570, -2.866e-4
0.571, -2.864e-4
0.572, -2.861e-4
0.573, -2.857e-4
0.574, -2.853e-4
0.575, -2.853e-4
0.576, -2.850e-4
0.577, -2.848e-4
0.578, -2.847e-4
0.579, -2.843e-4
0.580, -2.843e-4
0.581, -2.840e-4
0.582, -2.839e-4
0.583, -2.839e-4
0.584, -2.835e-4
0.585, -2.834e-4
0.586, -2.832e-4
0.587, -2.828e-4
0.588, -2.827e-4
0.589, -2.825e-4
0.590, -2.823e-4
0.591, -2.820e-4
0.592, -2.816e-4
0.593, -2.815e-4
0.594, -2.811e-4
0.595, -2.810e-4
0.596, -2.809e-4
0.597, -2.804e-4
0.598, -2.800e-4
0.599, -2.796e-4
0.600, -2.793e-4
0.601, -2.792e-4
0.602, -2.791e-4
0.603, -2.786e-4
0.604, -2.786e-4
0.605, -2.781e-4
0.606, -2.777e-4
0.607, -2.778e-4
0.608, -2.776e-4
0.609, -2.777e-4
0.610, -2.772e-4
0.611, -2.771e-4
0.612, -2.770e-4
0.613, -2.764e-4
0.614, -2.766e-4
0.615, -2.764e-4
0.616, -2.760e-4
0.617, -2.759e-4
0.618, -2.755e-4
0.619, -2.752e-4
0.620, -2.752e-4
0.621, -2.748e-4
0.622, -2.746e-4
0.623, -2.746e-4
0.624, -2.740e-4
0.625, -2.740e-4
0.626, -2.736e-4
0.627, -2.733e-4
0.628, -2.734e-4
0.629, -2.730e-4
0.630, -2.729e-4
0.631, -2.726e-4
0.632, -2.722e-4
0.633, -2.723e-4
0.634, -2.721e-4
0.635, -2.718e-4
0.636, -2.716e-4
0.637, -2.711e-4
0.638, -2.710e-4
0.639, -2.707e-4
0.640, -2.705e-4
0.641, -2.702e-4
0.642, -2.702e-4
0.643, -2.698e-4
0.644, -2.697e-4
0.645, -2.693e-4
0.646, -2.692e-4
0.647, -2.692e-4
0.648, -2.687e-4
0.649, -2.686e-4
0.650, -2.685e-4
0.651, -2.681e-4
0.652, -2.681e-4
0.653, -2.679e-4
0.654, -2.674e-4
0.655, -2.672e-4
0.656, -2.668e-4
0.657, -2.668e-4
0.658, -2.667e-4
0.659, -2.663e-4
0.660, -2.662e-4
0.661, -2.657e-4
0.662, -2.658e-4
0.663, -2.656e-4
0.664, -2.652e-4
0.665, -2.653e-4
0.666, -2.655e-4
0.667, -2.650e-4
0.668, -2.647e-4
0.669, -2.644e-4
0.670, -2.644e-4
0.671, -2.641e-4
0.672, -2.638e-4
0.673, -2.637e-4
0.674, -2.636e-4
0.675, -2.632e-4
0.676, -2.631e-4
0.677, -2.626e-4
0.678, -2.629e-4
0.679, -2.626e-4
0.680, -2.623e-4
0.681, -2.622e-4
0.682, -2.619e-4
0.683, -2.616e-4
0.684, -2.615e-4
0.685, -2.614e-4
0.686, -2.613e-4
0.687, -2.611e-4
0.688, -2.610e-4
0.689, -2.608e-4
0.690, -2.608e-4
0.691, -2.605e-4
0.692, -2.605e-4
0.693, -2.600e-4
0.694, -2.599e-4
0.695, -2.595e-4
0.696, -2.594e-4
0.697, -2.593e-4
0.698, -2.594e-4
0.699, -2.590e-4
0.700, -2.589e-4
0.701, -2.586e-4
0.702, -2.583e-4
0.703, -2.583e-4
0.704, -2.578e-4
0.705, -2.579e-4
0.706, -2.577e-4
0.707, -2.574e-4
0.708, -2.573e-4
0.709, -2.571e-4
0.710, -2.573e-4
0.711, -2.572e-4
0.712, -2.568e-4
0.713, -2.565e-4
0.714, -2.567e-4
0.715, -2.565e-4
0.716, -2.562e-4
0.717, -2.565e-4
0.718, -2.564e-4
0.719, -2.560e-4
0.720, -2.556e-4
0.721, -2.555e-4
0.722, -2.556e-4
0.723, -2.552e-4
0.724, -2.554e-4
0.725, -2.549e-4
0.726, -2.548e-4
0.727, -2.547e-4
0.728, -2.544e-4
0.729, -2.543e-4
0.730, -2.540e-4
0.731, -2.540e-4
0.732, -2.540e-4
0.733, -2.535e-4
0.734, -2.533e-4
0.735, -2.533e-4
0.736, -2.533e-4
0.737, -2.533e-4
0.738, -2.531e-4
0.739, -2.527e-4
0.740, -2.526e-4
0.741, -2.524e-4
0.742, -2.526e-4
0.743, -2.525e-4
0.744, -2.522e-4
0.745, -2.522e-4
0.746, -2.518e-4
0.747, -2.515e-4
0.748, -2.517e-4
0.749, -2.517e-4
0.750, -2.515e-4
0.751, -2.517e-4
0.752, -2.513e-4
0.753, -2.514e-4
0.754, -2.513e-4
0.755, -2.511e-4
0.756, -2.513e-4
0.757, -2.509e-4
0.758, -2.507e-4
0.759, -2.509e-4
0.760, -2.504e-4
0.761, -2.506e-4
0.762, -2.507e-4
0.763, -2.504e-4
0.764, -2.505e-4
0.765, -2.502e-4
0.766, -2.501e-4
0.767, -2.501e-4
0.768, -2.503e-4
0.769, -2.501e-4
0.770, -2.499e-4
0.771, -2.500e-4
0.772, -2.499e-4
0.773, -2.495e-4
0.774, -2.499e-4
0.775, -2.498e-4
0.776, -2.496e-4
0.777, -2.497e-4
0.778, -2.494e-4
0.779, -2.492e-4
0.780, -2.494e-4
0.781, -2.492e-4
0.782, -2.491e-4
0.783, -2.495e-4
0.784, -2.491e-4
0.785, -2.493e-4
0.786, -2.491e-4
0.787, -2.492e-4
0.788, -2.496e-4
0.789, -2.493e-4
0.790, -2.494e-4
0.791, -2.493e-4
0.792, -2.490e-4
0.793, -2.493e-4
0.794, -2.494e-4
0.795, -2.494e-4
0.796, -2.497e-4
0.797, -2.494e-4
0.798, -2.494e-4
0.799, -2.495e-4
0.800, -2.499e-4
0.801, -2.498e-4
0.802, -2.496e-4
0.803, -2.495e-4
0.804, -2.498e-4
0.805, -2.497e-4
0.806, -2.498e-4
0.807, -2.500e-4
0.808, -2.500e-4
0.809, -2.502e-4
0.810, -2.500e-4
0.811, -2.502e-4
0.812, -2.503e-4
0.813, -2.504e-4
0.814, -2.504e-4
0.815, -2.507e-4
0.816, -2.506e-4
0.817, -2.505e-4
0.818, -2.508e-4
0.819, -2.517e-4
0.820, -2.522e-4
0.821, -2.517e-4
0.822, -2.518e-4
0.823, -2.518e-4
0.824, -2.516e-4
0.825, -2.519e-4
0.826, -2.522e-4
0.827, -2.520e-4
0.828, -2.523e-4
0.829, -2.524e-4
0.830, -2.526e-4
0.831, -2.526e-4
0.832, -2.527e-4
0.833, -2.529e-4
0.834, -2.531e-4
0.835, -2.531e-4
0.836, -2.535e-4
0.837, -2.535e-4
0.838, -2.538e-4
0.839, -2.541e-4
0.840, -2.540e-4
0.841, -2.541e-4
0.842, -2.541e-4
0.843, -2.546e-4
0.844, -2.545e-4
0.845, -2.547e-4
0.846, -2.553e-4
0.847, -2.554e-4
0.848, -2.553e-4
0.849, -2.557e-4
0.850, -2.557e-4
0.851, -2.562e-4
0.852, -2.566e-4
0.853, -2.566e-4
0.854, -2.567e-4
0.855, -2.569e-4
0.856, -2.574e-4
0.857, -2.576e-4
0.858, -2.577e-4
0.859, -2.581e-4
0.860, -2.584e-4
0.861, -2.585e-4
0.862, -2.588e-4
0.863, -2.592e-4
0.864, -2.595e-4
0.865, -2.598e-4
0.866, -2.601e-4
0.867, -2.604e-4
0.868, -2.608e-4
0.869, -2.605e-4
0.870, -2.614e-4
0.871, -2.617e-4
0.872, -2.620e-4
0.873, -2.623e-4
0.874, -2.625e-4
0.875, -2.628e-4
0.876, -2.632e-4
0.877, -2.635e-4
0.878, -2.641e-4
0.879, -2.644e-4
0.880, -2.646e-4
0.881, -2.650e-4
0.882, -2.654e-4
0.883, -2.658e-4
0.884, -2.664e-4
0.885, -2.666e-4
0.886, -2.669e-4
0.887, -2.674e-4
0.888, -2.676e-4
0.889, -2.682e-4
0.890, -2.687e-4
0.891, -2.690e-4
0.892, -2.693e-4
0.893, -2.694e-4
0.894, -2.700e-4
0.895, -2.704e-4
0.896, -2.710e-4
0.897, -2.713e-4
0.898, -2.717e-4
0.899, -2.721e-4
0.900, -2.726e-4
0.901, -2.728e-4
0.902, -2.735e-4
0.903, -2.743e-4
0.904, -2.742e-4
0.905, -2.746e-4
0.906, -2.753e-4
0.907, -2.755e-4
0.908, -2.761e-4
0.909, -2.763e-4
0.910, -2.769e-4
0.911, -2.774e-4
0.912, -2.776e-4
0.913, -2.780e-4
0.914, -2.786e-4
0.915, -2.792e-4
0.916, -2.799e-4
0.917, -2.802e-4
0.918, -2.805e-4
0.919, -2.812e-4
0.920, -2.812e-4
0.921, -2.821e-4
0.922, -2.828e-4
0.923, -2.832e-4
0.924, -2.837e-4
0.925, -2.838e-4
0.926, -2.843e-4
0.927, -2.849e-4
0.928, -2.853e-4
0.929, -2.860e-4
0.930, -2.861e-4
0.931, -2.867e-4
0.932, -2.872e-4
0.933, -2.872e-4
0.934, -2.878e-4
0.935, -2.884e-4
0.936, -2.887e-4
0.937, -2.893e-4
0.938, -2.896e-4
0.939, -2.897e-4
0.940, -2.905e-4
0.941, -2.911e-4
0.942, -2.915e-4
0.943, -2.921e-4
0.944, -2.921e-4
0.945, -2.930e-4
0.946, -2.930e-4
0.947, -2.935e-4
0.948, -2.943e-4
0.949, -2.946e-4
0.950, -2.949e-4
0.951, -2.951e-4
0.952, -2.956e-4
0.953, -2.963e-4
0.954, -2.969e-4
0.955, -2.968e-4
0.956, -2.976e-4
0.957, -2.976e-4
0.958, -2.984e-4
0.959, -2.987e-4
0.960, -2.990e-4
0.961, -2.996e-4
0.962, -3.001e-4
0.963, -3.003e-4
0.964, -3.010e-4
0.965, -3.011e-4
0.966, -3.018e-4
0.967, -3.023e-4
0.968, -3.023e-4
0.969, -3.029e-4
0.970, -3.031e-4
0.971, -3.033e-4
0.972, -3.039e-4
0.973, -3.046e-4
0.974, -3.048e-4
0.975, -3.052e-4
0.976, -3.055e-4
0.977, -3.059e-4
0.978, -3.062e-4
0.979, -3.065e-4
0.980, -3.074e-4
0.981, -3.072e-4
0.982, -3.076e-4
0.983, -3.081e-4
0.984, -3.080e-4
0.985, -3.084e-4
0.986, -3.088e-4
0.987, -3.088e-4
0.988, -3.092e-4
0.989, -3.094e-4
0.990, -3.097e-4
0.991, -3.101e-4
0.992, -3.104e-4
0.993, -3.110e-4
0.994, -3.111e-4
0.995, -3.114e-4
0.996, -3.119e-4
0.997, -3.121e-4
0.998, -3.124e-4
0.999, -3.130e-4
1.000, -3.130e-4
1.001, -3.132e-4
1.002, -3.134e-4
1.003, -3.134e-4
1.004, -3.142e-4
1.005, -3.143e-4
1.006, -3.145e-4
1.007, -3.150e-4
1.008, -3.149e-4
1.009, -3.153e-4
1.010, -3.155e-4
1.011, -3.156e-4
1.012, -3.162e-4
1.013, -3.162e-4
1.014, -3.165e-4
1.015, -3.169e-4
1.016, -3.169e-4
1.017, -3.172e-4
1.018, -3.176e-4
1.019, -3.178e-4
1.020, -3.182e-4
1.021, -3.182e-4
1.022, -3.183e-4
1.023, -3.188e-4
1.024, -3.192e-4
1.025, -3.194e-4
1.026, -3.197e-4
1.027, -3.199e-4
1.028, -3.203e-4
1.029, -3.205e-4
1.030, -3.209e-4
1.031, -3.212e-4
1.032, -3.218e-4
1.033, -3.222e-4
1.034, -3.224e-4
1.035, -3.226e-4
1.036, -3.234e-4
1.037, -3.238e-4
1.038, -3.243e-4
1.039, -3.246e-4
1.040, -3.247e-4
1.041, -3.257e-4
1.042, -3.260e-4
1.043, -3.262e-4
1.044, -3.269e-4
1.045, -3.275e-4
1.046, -3.278e-4
1.047, -3.286e-4
1.048, -3.291e-4
1.049, -3.301e-4
1.050, -3.307e-4
1.051, -3.309e-4
1.052, -3.319e-4
1.053, -3.322e-4
1.054, -3.329e-4
1.055, -3.338e-4
1.056, -3.346e-4
1.057, -3.353e-4
1.058, -3.361e-4
1.059, -3.367e-4
1.060, -3.376e-4
1.061, -3.383e-4
1.062, -3.391e-4
1.063, -3.399e-4
1.064, -3.407e-4
1.065, -3.415e-4
1.066, -3.423e-4
1.067, -3.436e-4
1.068, -3.446e-4
1.069, -3.458e-4
1.070, -3.468e-4
1.071, -3.483e-4
1.072, -3.492e-4
1.073, -3.502e-4
1.074, -3.519e-4
1.075, -3.532e-4
1.076, -3.547e-4
1.077, -3.559e-4
1.078, -3.575e-4
1.079, -3.590e-4
1.080, -3.605e-4
1.081, -3.621e-4
1.082, -3.639e-4
1.083, -3.660e-4
1.084, -3.676e-4
1.085, -3.690e-4
1.086, -3.715e-4
1.087, -3.735e-4
1.088, -3.754e-4
1.089, -3.780e-4
1.090, -3.802e-4
1.091, -3.827e-4
1.092, -3.856e-4
1.093, -3.881e-4
1.094, -3.912e-4
1.095, -3.946e-4
1.096, -3.976e-4
1.097, -4.011e-4
1.098, -4.045e-4
1.099, -4.082e-4
1.100, -3.689e-4
1.099, -2.636e-4
1.098, -1.835e-4
1.097, -1.231e-4
1.096, -7.681e-5
1.095, -3.949e-5
1.094, -9.432e-6
1.093, 1.492e-5
1.092, 3.532e-5
1.091, 5.207e-5
1.090, 6.685e-5
1.089, 7.990e-5
1.088, 9.141e-5
1.087, 1.010e-4
1.086, 1.093e-4
1.085, 1.176e-4
1.084, 1.243e-4
1.083, 1.299e-4
1.082, 1.355e-4
1.081, 1.406e-4
1.080, 1.450e-4
1.079, 1.490e-4
1.078, 1.526e-4
1.077, 1.561e-4
1.076, 1.592e-4
1.075, 1.624e-4
1.074, 1.652e-4
1.073, 1.675e-4
1.072, 1.699e-4
1.071, 1.723e-4
1.070, 1.741e-4
1.069, 1.763e-4
1.068, 1.780e-4
1.067, 1.794e-4
1.066, 1.810e-4
1.065, 1.823e-4
1.064, 1.833e-4
1.063, 1.850e-4
1.062, 1.859e-4
1.061, 1.872e-4
1.060, 1.885e-4
1.059, 1.891e-4
1.058, 1.901e-4
1.057, 1.910e-4
1.056, 1.919e-4
1.055, 1.931e-4
1.054, 1.936e-4
1.053, 1.943e-4
1.052, 1.950e-4
1.051, 1.953e-4
1.050, 1.966e-4
1.049, 1.973e-4
1.048, 1.976e-4
1.047, 1.985e-4
1.046, 1.988e-4
1.045, 1.993e-4
1.044, 2.000e-4
1.043, 2.005e-4
1.042, 2.009e-4
1.041, 2.016e-4
1.040, 2.016e-4
1.039, 2.025e-4
1.038, 2.025e-4
1.037, 2.035e-4
1.036, 2.039e-4
1.035, 2.041e-4
1.034, 2.045e-4
1.033, 2.047e-4
1.032, 2.052e-4
1.031, 2.057e-4
1.030, 2.062e-4
1.029, 2.065e-4
1.028, 2.068e-4
1.027, 2.070e-4
1.026, 2.074e-4
1.025, 2.077e-4
1.024, 2.085e-4
1.023, 2.090e-4
1.022, 2.092e-4
1.021, 2.096e-4
1.020, 2.100e-4
1.019, 2.099e-4
1.018, 2.106e-4
1.017, 2.107e-4
1.016, 2.113e-4
1.015, 2.117e-4
1.014, 2.115e-4
1.013, 2.117e-4
1.012, 2.122e-4
1.011, 2.122e-4
1.010, 2.126e-4
1.009, 2.130e-4
1.008, 2.130e-4
1.007, 2.134e-4
1.006, 2.137e-4
1.005, 2.138e-4
1.004, 2.144e-4
1.003, 2.144e-4
1.002, 2.148e-4
1.001, 2.147e-4
1.000, 2.149e-4
0.999, 2.154e-4
0.998, 2.157e-4
0.997, 2.160e-4
0.996, 2.161e-4
0.995, 2.162e-4
0.994, 2.162e-4
0.993, 2.163e-4
0.992, 2.167e-4
0.991, 2.172e-4
0.990, 2.169e-4
0.989, 2.170e-4
0.988, 2.175e-4
0.987, 2.172e-4
0.986, 2.176e-4
0.985, 2.175e-4
0.984, 2.180e-4
0.983, 2.180e-4
0.982, 2.181e-4
0.981, 2.181e-4
0.980, 2.186e-4
0.979, 2.186e-4
0.978, 2.187e-4
0.977, 2.186e-4
0.976, 2.184e-4
0.975, 2.189e-4
0.974, 2.190e-4
0.973, 2.192e-4
0.972, 2.195e-4
0.971, 2.192e-4
0.970, 2.193e-4
0.969, 2.194e-4
0.968, 2.191e-4
0.967, 2.191e-4
0.966, 2.193e-4
0.965, 2.193e-4
0.964, 2.194e-4
0.963, 2.192e-4
0.962, 2.193e-4
0.961, 2.193e-4
0.960, 2.188e-4
0.959, 2.191e-4
0.958, 2.190e-4
0.957, 2.195e-4
0.956, 2.190e-4
0.955, 2.191e-4
0.954, 2.189e-4
0.953, 2.191e-4
0.952, 2.190e-4
0.951, 2.189e-4
0.950, 2.186e-4
0.949, 2.186e-4
0.948, 2.188e-4
0.947, 2.186e-4
0.946, 2.188e-4
0.945, 2.182e-4
0.944, 2.179e-4
0.943, 2.180e-4
0.942, 2.176e-4
0.941, 2.177e-4
0.940, 2.180e-4
0.939, 2.174e-4
0.938, 2.174e-4
0.937, 2.172e-4
0.936, 2.170e-4
0.935, 2.172e-4
0.934, 2.166e-4
0.933, 2.165e-4
0.932, 2.168e-4
0.931, 2.162e-4
0.930, 2.161e-4
0.929, 2.159e-4
0.928, 2.158e-4
0.927, 2.159e-4
0.926, 2.153e-4
0.925, 2.151e-4
0.924, 2.152e-4
0.923, 2.145e-4
0.922, 2.149e-4
0.921, 2.150e-4
0.920, 2.143e-4
0.919, 2.143e-4
0.918, 2.138e-4
0.917, 2.136e-4
0.916, 2.136e-4
0.915, 2.131e-4
0.914, 2.130e-4
0.913, 2.127e-4
0.912, 2.122e-4
0.911, 2.124e-4
0.910, 2.117e-4
0.909, 2.117e-4
0.908, 2.113e-4
0.907, 2.112e-4
0.906, 2.109e-4
0.905, 2.110e-4
0.904, 2.103e-4
0.903, 2.103e-4
0.902, 2.100e-4
0.901, 2.099e-4
0.900, 2.094e-4
0.899, 2.088e-4
0.898, 2.087e-4
0.897, 2.084e-4
0.896, 2.083e-4
0.895, 2.082e-4
0.894, 2.079e-4
0.893, 2.074e-4
0.892, 2.074e-4
0.891, 2.070e-4
0.890, 2.070e-4
0.889, 2.067e-4
0.888, 2.065e-4
0.887, 2.060e-4
0.886, 2.054e-4
0.885, 2.054e-4
0.884, 2.052e-4
0.883, 2.048e-4
0.882, 2.043e-4
0.881, 2.039e-4
0.880, 2.037e-4
0.879, 2.036e-4
0.878, 2.033e-4
0.877, 2.030e-4
0.876, 2.030e-4
0.875, 2.025e-4
0.874, 2.026e-4
0.873, 2.019e-4
0.872, 2.015e-4
0.871, 2.015e-4
0.870, 2.014e-4
0.869, 2.010e-4
0.868, 2.009e-4
0.867, 2.003e-4
0.866, 2.001e-4
0.865, 1.998e-4
0.864, 1.997e-4
0.863, 1.995e-4
0.862, 1.989e-4
0.861, 1.989e-4
0.860, 1.987e-4
0.859, 1.983e-4
0.858, 1.980e-4
0.857, 1.981e-4
0.856, 1.976e-4
0.855, 1.975e-4
0.854, 1.971e-4
0.853, 1.970e-4
0.852, 1.969e-4
0.851, 1.968e-4
0.850, 1.964e-4
0.849, 1.961e-4
0.848, 1.958e-4
0.847, 1.956e-4
0.846, 1.954e-4
0.845, 1.953e-4
0.844, 1.952e-4
0.843, 1.950e-4
0.842, 1.949e-4
0.841, 1.947e-4
0.840, 1.945e-4
0.839, 1.944e-4
0.838, 1.939e-4
0.837, 1.942e-4
0.836, 1.942e-4
0.835, 1.935e-4
0.834, 1.934e-4
0.833, 1.934e-4
0.832, 1.929e-4
0.831, 1.929e-4
0.830, 1.928e-4
0.829, 1.925e-4
0.828, 1.926e-4
0.827, 1.921e-4
0.826, 1.923e-4
0.825, 1.923e-4
0.824, 1.919e-4
0.823, 1.917e-4
0.822, 1.915e-4
0.821, 1.915e-4
0.820, 1.913e-4
0.819, 1.927e-4
0.818, 1.922e-4
0.817, 1.920e-4
0.816, 1.915e-4
0.815, 1.915e-4
0.814, 1.909e-4
0.813, 1.909e-4
0.812, 1.911e-4
0.811, 1.905e-4
0.810, 1.905e-4
0.809, 1.904e-4
0.808, 1.901e-4
0.807, 1.905e-4
0.806, 1.905e-4
0.805, 1.905e-4
0.804, 1.904e-4
0.803, 1.900e-4
0.802, 1.901e-4
0.801, 1.900e-4
0.800, 1.900e-4
0.799, 1.900e-4
0.798, 1.899e-4
0.797, 1.902e-4
0.796, 1.900e-4
0.795, 1.898e-4
0.794, 1.899e-4
0.793, 1.899e-4
0.792, 1.897e-4
0.791, 1.898e-4
0.790, 1.897e-4
0.789, 1.896e-4
0.788, 1.900e-4
0.787, 1.895e-4
0.786, 1.896e-4
0.785, 1.895e-4
0.784, 1.895e-4
0.783, 1.896e-4
0.782, 1.894e-4
0.781, 1.894e-4
0.780, 1.896e-4
0.779, 1.895e-4
0.778, 1.896e-4
0.777, 1.895e-4
0.776, 1.895e-4
0.775, 1.896e-4
0.774, 1.897e-4
0.773, 1.895e-4
0.772, 1.898e-4
0.771, 1.893e-4
0.770, 1.896e-4
0.769, 1.895e-4
0.768, 1.896e-4
0.767, 1.898e-4
0.766, 1.897e-4
0.765, 1.895e-4
0.764, 1.898e-4
0.763, 1.896e-4
0.762, 1.897e-4
0.761, 1.900e-4
0.760, 1.899e-4
0.759, 1.898e-4
0.758, 1.899e-4
0.757, 1.900e-4
0.756, 1.901e-4
0.755, 1.901e-4
0.754, 1.903e-4
0.753, 1.903e-4
0.752, 1.905e-4
0.751, 1.905e-4
0.750, 1.902e-4
0.749, 1.907e-4
0.748, 1.910e-4
0.747, 1.908e-4
0.746, 1.909e-4
0.745, 1.905e-4
0.744, 1.906e-4
0.743, 1.909e-4
0.742, 1.910e-4
0.741, 1.912e-4
0.740, 1.915e-4
0.739, 1.915e-4
0.738, 1.917e-4
0.737, 1.916e-4
0.736, 1.918e-4
0.735, 1.920e-4
0.734, 1.920e-4
0.733, 1.922e-4
0.732, 1.924e-4
0.731, 1.922e-4
0.730, 1.926e-4
0.729, 1.925e-4
0.728, 1.926e-4
0.727, 1.927e-4
0.726, 1.927e-4
0.725, 1.929e-4
0.724, 1.932e-4
0.723, 1.933e-4
0.722, 1.934e-4
0.721, 1.934e-4
0.720, 1.934e-4
0.719, 1.938e-4
0.718, 1.939e-4
0.717, 1.945e-4
0.716, 1.947e-4
0.715, 1.944e-4
0.714, 1.945e-4
0.713, 1.946e-4
0.712, 1.947e-4
0.711, 1.949e-4
0.710, 1.952e-4
0.709, 1.953e-4
0.708, 1.955e-4
0.707, 1.954e-4
0.706, 1.954e-4
0.705, 1.958e-4
0.704, 1.958e-4
0.703, 1.961e-4
0.702, 1.959e-4
0.701, 1.962e-4
0.700, 1.965e-4
0.699, 1.967e-4
0.698, 1.968e-4
0.697, 1.972e-4
0.696, 1.971e-4
0.695, 1.974e-4
0.694, 1.975e-4
0.693, 1.976e-4
0.692, 1.979e-4
0.691, 1.981e-4
0.690, 1.980e-4
0.689, 1.982e-4
0.688, 1.985e-4
0.687, 1.985e-4
0.686, 1.986e-4
0.685, 1.990e-4
0.684, 1.993e-4
0.683, 1.991e-4
0.682, 1.995e-4
0.681, 1.997e-4
0.680, 1.996e-4
0.679, 2.000e-4
0.678, 2.002e-4
0.677, 2.004e-4
0.676, 2.003e-4
0.675, 2.005e-4
0.674, 2.007e-4
0.673, 2.008e-4
0.672, 2.013e-4
0.671, 2.013e-4
0.670, 2.013e-4
0.669, 2.017e-4
0.668, 2.019e-4
0.667, 2.019e-4
0.666, 2.023e-4
0.665, 2.027e-4
0.664, 2.027e-4
0.663, 2.027e-4
0.662, 2.030e-4
0.661, 2.031e-4
0.660, 2.034e-4
0.659, 2.037e-4
0.658, 2.039e-4
0.657, 2.039e-4
0.656, 2.040e-4
0.655, 2.044e-4
0.654, 2.043e-4
0.653, 2.046e-4
0.652, 2.047e-4
0.651, 2.048e-4
0.650, 2.052e-4
0.649, 2.055e-4
0.648, 2.056e-4
0.647, 2.057e-4
0.646, 2.060e-4
0.645, 2.062e-4
0.644, 2.065e-4
0.643, 2.065e-4
0.642, 2.066e-4
0.641, 2.070e-4
0.640, 2.071e-4
0.639, 2.074e-4
0.638, 2.076e-4
0.637, 2.078e-4
0.636, 2.081e-4
0.635, 2.081e-4
0.634, 2.084e-4
0.633, 2.088e-4
0.632, 2.088e-4
0.631, 2.091e-4
0.630, 2.092e-4
0.629, 2.094e-4
0.628, 2.096e-4
0.627, 2.097e-4
0.626, 2.101e-4
0.625, 2.102e-4
0.624, 2.106e-4
0.623, 2.107e-4
0.622, 2.108e-4
0.621, 2.115e-4
0.620, 2.116e-4
0.619, 2.117e-4
0.618, 2.120e-4
0.617, 2.122e-4
0.616, 2.124e-4
0.615, 2.127e-4
0.614, 2.130e-4
0.613, 2.135e-4
0.612, 2.137e-4
0.611, 2.136e-4
0.610, 2.138e-4
0.609, 2.141e-4
0.608, 2.144e-4
0.607, 2.146e-4
0.606, 2.150e-4
0.605, 2.153e-4
0.604, 2.155e-4
0.603, 2.154e-4
0.602, 2.157e-4
0.601, 2.159e-4
0.600, 2.160e-4
0.599, 2.164e-4
0.598, 2.164e-4
0.597, 2.168e-4
0.596, 2.171e-4
0.595, 2.174e-4
0.594, 2.177e-4
0.593, 2.177e-4
0.592, 2.179e-4
0.591, 2.183e-4
0.590, 2.185e-4
0.589, 2.187e-4
0.588, 2.192e-4
0.587, 2.193e-4
0.586, 2.198e-4
0.585, 2.198e-4
0.584, 2.201e-4
0.583, 2.204e-4
0.582, 2.207e-4
0.581, 2.209e-4
0.580, 2.210e-4
0.579, 2.209e-4
0.578, 2.214e-4
0.577, 2.216e-4
0.576, 2.219e-4
0.575, 2.223e-4
0.574, 2.223e-4
0.573, 2.225e-4
0.572, 2.231e-4
0.571, 2.231e-4
0.570, 2.236e-4
0.569, 2.238e-4
0.568, 2.239e-4
0.567, 2.243e-4
0.566, 2.244e-4
0.565, 2.248e-4
0.564, 2.251e-4
0.563, 2.255e-4
0.562, 2.258e-4
0.561, 2.260e-4
0.560, 2.261e-4
0.559, 2.266e-4
0.558, 2.266e-4
0.557, 2.269e-4
0.556, 2.274e-4
0.555, 2.273e-4
0.554, 2.275e-4
0.553, 2.276e-4
0.552, 2.277e-4
0.551, 2.282e-4
0.550, 2.284e-4
0.549, 2.286e-4
0.548, 2.288e-4
0.547, 2.289e-4
0.546, 2.291e-4
0.545, 2.295e-4
0.544, 2.299e-4
0.543, 2.302e-4
0.542, 2.304e-4
0.541, 2.308e-4
0.540, 2.309e-4
0.539, 2.311e-4
0.538, 2.314e-4
0.537, 2.316e-4
0.536, 2.318e-4
0.535, 2.320e-4
0.534, 2.321e-4
0.533, 2.325e-4
0.532, 2.328e-4
0.531, 2.331e-4
0.530, 2.330e-4
0.529, 2.334e-4
0.528, 2.335e-4
0.527, 2.339e-4
0.526, 2.337e-4
0.525, 2.341e-4
0.524, 2.343e-4
0.523, 2.345e-4
0.522, 2.348e-4
0.521, 2.350e-4
0.520, 2.352e-4
0.519, 2.355e-4
0.518, 2.358e-4
0.517, 2.357e-4
0.516, 2.359e-4
0.515, 2.360e-4
0.514, 2.363e-4
0.513, 2.364e-4
0.512, 2.373e-4
0.511, 2.372e-4
0.510, 2.371e-4
0.509, 2.371e-4
0.508, 2.375e-4
0.507, 2.374e-4
0.506, 2.376e-4
0.505, 2.377e-4
0.504, 2.379e-4
0.503, 2.381e-4
0.502, 2.381e-4
0.501, 2.385e-4
0.500, 2.386e-4
0.499, 2.387e-4
0.498, 2.390e-4
0.497, 2.392e-4
0.496, 2.392e-4
0.495, 2.398e-4
0.494, 2.398e-4
0.493, 2.400e-4
0.492, 2.405e-4
0.491, 2.403e-4
0.490, 2.406e-4
0.489, 2.407e-4
0.488, 2.408e-4
0.487, 2.410e-4
0.486, 2.411e-4
0.485, 2.413e-4
0.484, 2.417e-4
0.483, 2.417e-4
0.482, 2.420e-4
0.481, 2.422e-4
0.480, 2.422e-4
0.479, 2.425e-4
0.478, 2.426e-4
0.477, 2.425e-4
0.476, 2.429e-4
0.475, 2.426e-4
0.474, 2.432e-4
0.473, 2.435e-4
0.472, 2.434e-4
0.471, 2.437e-4
0.470, 2.437e-4
0.469, 2.438e-4
0.468, 2.442e-4
0.467, 2.445e-4
0.466, 2.445e-4
0.465, 2.447e-4
0.464, 2.447e-4
0.463, 2.452e-4
0.462, 2.450e-4
0.461, 2.456e-4
0.460, 2.458e-4
0.459, 2.458e-4
0.458, 2.463e-4
0.457, 2.463e-4
0.456, 2.463e-4
0.455, 2.465e-4
0.454, 2.468e-4
0.453, 2.472e-4
0.452, 2.472e-4
0.451, 2.473e-4
0.450, 2.474e-4
0.449, 2.477e-4
0.448, 2.475e-4
0.447, 2.479e-4
0.446, 2.478e-4
0.445, 2.482e-4
0.444, 2.484e-4
0.443, 2.484e-4
0.442, 2.490e-4
0.441, 2.492e-4
0.440, 2.494e-4
0.439, 2.497e-4
0.438, 2.496e-4
0.437, 2.496e-4
0.436, 2.499e-4
0.435, 2.502e-4
0.434, 2.503e-4
0.433, 2.505e-4
0.432, 2.506e-4
0.431, 2.510e-4
0.430, 2.510e-4
0.429, 2.516e-4
0.428, 2.517e-4
0.427, 2.520e-4
0.426, 2.524e-4
0.425, 2.524e-4
0.424, 2.526e-4
0.423, 2.532e-4
0.422, 2.528e-4
0.421, 2.533e-4
0.420, 2.533e-4
0.419, 2.536e-4
0.418, 2.539e-4
0.417, 2.541e-4
0.416, 2.544e-4
0.415, 2.548e-4
0.414, 2.549e-4
0.413, 2.553e-4
0.412, 2.554e-4
0.411, 2.555e-4
0.410, 2.560e-4
0.409, 2.563e-4
0.408, 2.564e-4
0.407, 2.569e-4
0.406, 2.568e-4
0.405, 2.569e-4
0.404, 2.573e-4
0.403, 2.577e-4
0.402, 2.581e-4
0.401, 2.580e-4
0.400, 2.585e-4
0.399, 2.589e-4
0.398, 2.585e-4
0.397, 2.592e-4
0.396, 2.595e-4
0.395, 2.597e-4
0.394, 2.601e-4
0.393, 2.603e-4
0.392, 2.604e-4
0.391, 2.606e-4
0.390, 2.611e-4
0.389, 2.614e-4
0.388, 2.617e-4
0.387, 2.616e-4
0.386, 2.622e-4
0.385, 2.623e-4
0.384, 2.627e-4
0.383, 2.629e-4
0.382, 2.629e-4
0.381, 2.633e-4
0.380, 2.635e-4
0.379, 2.636e-4
0.378, 2.638e-4
0.377, 2.640e-4
0.376, 2.641e-4
0.375, 2.644e-4
0.374, 2.645e-4
0.373, 2.646e-4
0.372, 2.649e-4
0.371, 2.651e-4
0.370, 2.653e-4
0.369, 2.657e-4
0.368, 2.655e-4
0.367, 2.659e-4
0.366, 2.660e-4
0.365, 2.662e-4
0.364, 2.664e-4
0.363, 2.664e-4
0.362, 2.666e-4
0.361, 2.666e-4
0.360, 2.668e-4
0.359, 2.670e-4
0.358, 2.674e-4
0.357, 2.673e-4
0.356, 2.675e-4
0.355, 2.676e-4
0.354, 2.678e-4
0.353, 2.679e-4
0.352, 2.682e-4
0.351, 2.683e-4
0.350, 2.683e-4
0.349, 2.681e-4
0.348, 2.681e-4
0.347, 2.680e-4
0.346, 2.683e-4
0.345, 2.685e-4
0.344, 2.684e-4
0.343, 2.686e-4
0.342, 2.684e-4
0.341, 2.688e-4
0.340, 2.687e-4
0.339, 2.688e-4
0.338, 2.689e-4
0.337, 2.690e-4
0.336, 2.686e-4
0.335, 2.689e-4
0.334, 2.688e-4
0.333, 2.689e-4
0.332, 2.689e-4
0.331, 2.688e-4
0.330, 2.688e-4
0.329, 2.686e-4
0.328, 2.684e-4
0.327, 2.687e-4
0.326, 2.686e-4
0.325, 2.687e-4
0.324, 2.686e-4
0.323, 2.681e-4
0.322, 2.685e-4
0.321, 2.682e-4
0.320, 2.682e-4
0.319, 2.682e-4
0.318, 2.680e-4
0.317, 2.679e-4
0.316, 2.678e-4
0.315, 2.677e-4
0.314, 2.676e-4
0.313, 2.676e-4
0.312, 2.673e-4
0.311, 2.672e-4
0.310, 2.667e-4
0.309, 2.666e-4
0.308, 2.665e-4
0.307, 2.669e-4
0.306, 2.668e-4
0.305, 2.666e-4
0.304, 2.663e-4
0.303, 2.663e-4
0.302, 2.658e-4
0.301, 2.660e-4
0.300, 2.657e-4
0.299, 2.655e-4
0.298, 2.654e-4
0.297, 2.650e-4
0.296, 2.647e-4
0.295, 2.645e-4
0.294, 2.642e-4
0.293, 2.643e-4
0.292, 2.639e-4
0.291, 2.636e-4
0.290, 2.635e-4
0.289, 2.635e-4
0.288, 2.633e-4
0.287, 2.630e-4
0.286, 2.626e-4
0.285, 2.624e-4
0.284, 2.624e-4
0.283, 2.620e-4
0.282, 2.619e-4
0.281, 2.619e-4
0.280, 2.615e-4
0.279, 2.616e-4
0.278, 2.613e-4
0.277, 2.610e-4
0.276, 2.609e-4
0.275, 2.606e-4
0.274, 2.605e-4
0.273, 2.601e-4
0.272, 2.599e-4
0.271, 2.600e-4
0.270, 2.597e-4
0.269, 2.596e-4
0.268, 2.592e-4
0.267, 2.590e-4
0.266, 2.590e-4
0.265, 2.586e-4
0.264, 2.582e-4
0.263, 2.582e-4
0.262, 2.581e-4
0.261, 2.580e-4
0.260, 2.579e-4
0.259, 2.574e-4
0.258, 2.574e-4
0.257, 2.573e-4
0.256, 2.573e-4
0.255, 2.572e-4
0.254, 2.569e-4
0.253, 2.570e-4
0.252, 2.567e-4
0.251, 2.566e-4
0.250, 2.566e-4
0.249, 2.566e-4
0.248, 2.564e-4
0.247, 2.563e-4
0.246, 2.563e-4
0.245, 2.558e-4
0.244, 2.557e-4
0.243, 2.556e-4
0.242, 2.557e-4
0.241, 2.555e-4
0.240, 2.553e-4
0.239, 2.552e-4
0.238, 2.551e-4
0.237, 2.552e-4
0.236, 2.551e-4
0.235, 2.551e-4
0.234, 2.548e-4
0.233, 2.549e-4
0.232, 2.548e-4
0.231, 2.550e-4
0.230, 2.548e-4
0.229, 2.548e-4
0.228, 2.549e-4
0.227, 2.546e-4
0.226, 2.548e-4
0.225, 2.546e-4
0.224, 2.547e-4
0.223, 2.548e-4
0.222, 2.546e-4
0.221, 2.548e-4
0.220, 2.548e-4
0.219, 2.546e-4
0.218, 2.548e-4
0.217, 2.546e-4
0.216, 2.549e-4
0.215, 2.548e-4
0.214, 2.547e-4
0.213, 2.548e-4
0.212, 2.549e-4
0.211, 2.551e-4
0.210, 2.553e-4
0.209, 2.553e-4
0.208, 2.552e-4
0.207, 2.556e-4
0.206, 2.556e-4
0.205, 2.559e-4
0.204, 2.564e-4
0.203, 2.562e-4
0.202, 2.564e-4
0.201, 2.566e-4
0.200, 2.564e-4
0.199, 2.570e-4
0.198, 2.569e-4
0.197, 2.569e-4
0.196, 2.571e-4
0.195, 2.572e-4
0.194, 2.577e-4
0.193, 2.577e-4
0.192, 2.579e-4
0.191, 2.583e-4
0.190, 2.585e-4
0.189, 2.586e-4
0.188, 2.590e-4
0.187, 2.589e-4
0.186, 2.595e-4
0.185, 2.599e-4
0.184, 2.602e-4
0.183, 2.602e-4
0.182, 2.605e-4
0.181, 2.607e-4
0.180, 2.610e-4
0.179, 2.613e-4
0.178, 2.617e-4
0.177, 2.619e-4
0.176, 2.623e-4
0.175, 2.626e-4
0.174, 2.628e-4
0.173, 2.634e-4
0.172, 2.640e-4
0.171, 2.639e-4
0.170, 2.645e-4
0.169, 2.647e-4
0.168, 2.651e-4
0.167, 2.655e-4
0.166, 2.658e-4
0.165, 2.663e-4
0.164, 2.666e-4
0.163, 2.672e-4
0.162, 2.675e-4
0.161, 2.681e-4
0.160, 2.688e-4
0.159, 2.691e-4
0.158, 2.694e-4
0.157, 2.699e-4
0.156, 2.703e-4
0.155, 2.708e-4
0.154, 2.716e-4
0.153, 2.720e-4
0.152, 2.721e-4
0.151, 2.728e-4
0.150, 2.732e-4
0.149, 2.738e-4
0.148, 2.744e-4
0.147, 2.750e-4
0.146, 2.755e-4
0.145, 2.758e-4
0.144, 2.765e-4
0.143, 2.771e-4
0.142, 2.776e-4
0.141, 2.784e-4
0.140, 2.788e-4
0.139, 2.792e-4
0.138, 2.798e-4
0.137, 2.806e-4
0.136, 2.812e-4
0.135, 2.822e-4
0.134, 2.827e-4
0.133, 2.834e-4
0.132, 2.842e-4
0.131, 2.847e-4
0.130, 2.854e-4
0.129, 2.864e-4
0.128, 2.869e-4
0.127, 2.879e-4
0.126, 2.886e-4
0.125, 2.895e-4
0.124, 2.905e-4
0.123, 2.912e-4
0.122, 2.921e-4
0.121, 2.929e-4
0.120, 2.935e-4
0.119, 2.944e-4
0.118, 2.953e-4
0.117, 2.965e-4
0.116, 2.975e-4
0.115, 2.980e-4
0.114, 2.992e-4
0.113, 3.000e-4
0.112, 3.011e-4
0.111, 3.022e-4
0.110, 3.033e-4
0.109, 3.042e-4
0.108, 3.053e-4
0.107, 3.063e-4
0.106, 3.072e-4
0.105, 3.086e-4
0.104, 3.096e-4
0.103, 3.110e-4
0.102, 3.125e-4
0.101, 3.134e-4
0.100, 3.144e-4
0.099, 3.157e-4
0.098, 3.167e-4
0.097, 3.178e-4
0.096, 3.192e-4
0.095, 3.207e-4
0.094, 3.219e-4
0.093, 3.229e-4
0.092, 3.242e-4
0.091, 3.253e-4
0.090, 3.270e-4
0.089, 3.282e-4
0.088, 3.296e-4
0.087, 3.312e-4
0.086, 3.325e-4
0.085, 3.342e-4
0.084, 3.356e-4
0.083, 3.372e-4
0.082, 3.387e-4
0.081, 3.403e-4
0.080, 3.418e-4
0.079, 3.437e-4
0.078, 3.452e-4
0.077, 3.469e-4
0.076, 3.487e-4
0.075, 3.503e-4
0.074, 3.522e-4
0.073, 3.535e-4
0.072, 3.554e-4
0.071, 3.574e-4
0.070, 3.593e-4
0.069, 3.610e-4
0.068, 3.628e-4
0.067, 3.648e-4
0.066, 3.670e-4
0.065, 3.688e-4
0.064, 3.708e-4
0.063, 3.727e-4
0.062, 3.748e-4
0.061, 3.769e-4
0.060, 3.791e-4
0.059, 3.808e-4
0.058, 3.835e-4
0.057, 3.858e-4
0.056, 3.880e-4
0.055, 3.905e-4
0.054, 3.923e-4
0.053, 3.946e-4
0.052, 3.974e-4
0.051, 3.997e-4
0.050, 4.021e-4
0.049, 4.045e-4
0.048, 4.069e-4
0.047, 4.095e-4
0.046, 4.117e-4
0.045, 4.143e-4
0.044, 4.170e-4
0.043, 4.195e-4
0.042, 4.223e-4
0.041, 4.246e-4
0.040, 4.274e-4
0.039, 4.303e-4
0.038, 4.330e-4
0.037, 4.359e-4
0.036, 4.386e-4
0.035, 4.412e-4
0.034, 4.440e-4
0.033, 4.469e-4
0.032, 4.499e-4
0.031, 4.530e-4
0.030, 4.557e-4
0.029, 4.587e-4
0.028, 4.618e-4
0.027, 4.646e-4
0.026, 4.677e-4
0.025, 4.709e-4
0.024, 4.741e-4
0.023, 4.773e-4
0.022, 4.804e-4
0.021, 4.834e-4
0.020, 4.867e-4
0.019, 4.899e-4
0.018, 4.931e-4
0.017, 4.963e-4
0.016, 4.993e-4
0.015, 5.029e-4
0.014, 5.062e-4
0.013, 5.095e-4
0.012, 5.130e-4
0.011, 5.161e-4
0.010, 5.194e-4
0.009, 5.227e-4
0.008, 5.260e-4
0.007, 5.296e-4
0.006, 5.331e-4
0.005, 5.364e-4
0.004, 5.399e-4
0.003, 5.430e-4
0.002, 5.464e-4
0.001, 5.499e-4
0.000, 5.542e-4
-0.001, 5.576e-4
-0.002, 5.605e-4
-0.003, 5.639e-4
-0.004, 5.674e-4
-0.005, 5.704e-4
-0.006, 5.738e-4
-0.007, 5.771e-4
-0.008, 5.805e-4
-0.009, 5.838e-4
-0.010, 5.870e-4
-0.011, 5.903e-4
-0.012, 5.936e-4
-0.013, 5.968e-4
-0.014, 5.999e-4
-0.015, 6.032e-4
-0.016, 6.064e-4
-0.017, 6.098e-4
-0.018, 6.130e-4
-0.019, 6.163e-4
-0.020, 6.197e-4
-0.021, 6.226e-4
-0.022, 6.259e-4
-0.023, 6.289e-4
-0.024, 6.320e-4
-0.025, 6.351e-4
-0.026, 6.381e-4
-0.027, 6.411e-4
-0.028, 6.441e-4
-0.029, 6.469e-4
-0.030, 6.500e-4
-0.031, 6.531e-4
-0.032, 6.561e-4
-0.033, 6.590e-4
-0.034, 6.619e-4
-0.035, 6.646e-4
-0.036, 6.672e-4
-0.037, 6.698e-4
-0.038, 6.727e-4
-0.039, 6.753e-4
-0.040, 6.776e-4
-0.041, 6.802e-4
-0.042, 6.828e-4
-0.043, 6.856e-4
-0.044, 6.882e-4
-0.045, 6.907e-4
-0.046, 6.935e-4
-0.047, 6.958e-4
-0.048, 6.984e-4
-0.049, 7.008e-4
-0.050, 7.031e-4
-0.051, 7.060e-4
-0.052, 7.084e-4
-0.053, 7.102e-4
-0.054, 7.122e-4
-0.055, 7.146e-4
-0.056, 7.166e-4
-0.057, 7.193e-4
-0.058, 7.212e-4
-0.059, 7.231e-4
-0.060, 7.255e-4
-0.061, 7.273e-4
-0.062, 7.294e-4
-0.063, 7.312e-4
-0.064, 7.332e-4
-0.065, 7.353e-4
-0.066, 7.369e-4
-0.067, 7.387e-4
-0.068, 7.406e-4
-0.069, 7.423e-4
-0.070, 7.442e-4
-0.071, 7.460e-4
-0.072, 7.477e-4
-0.073, 7.494e-4
-0.074, 7.510e-4
-0.075, 7.526e-4
-0.076, 7.543e-4
-0.077, 7.557e-4
-0.078, 7.575e-4
-0.079, 7.590e-4
-0.080, 7.603e-4
-0.081, 7.618e-4
-0.082, 7.630e-4
-0.083, 7.644e-4
-0.084, 7.660e-4
-0.085, 7.672e-4
-0.086, 7.683e-4
-0.087, 7.698e-4
-0.088, 7.708e-4
-0.089, 7.721e-4
-0.090, 7.732e-4
-0.091, 7.744e-4
-0.092, 7.756e-4
-0.093, 7.765e-4
-0.094, 7.778e-4
-0.095, 7.788e-4
-0.096, 7.798e-4
-0.097, 7.809e-4
-0.098, 7.815e-4
-0.099, 7.827e-4
-0.100, 7.541e-4
-0.099, 6.810e-4
-0.098, 6.244e-4
-0.097, 5.774e-4
-0.096, 5.372e-4
-0.095, 5.016e-4
-0.094, 4.695e-4
-0.093, 4.405e-4
-0.092, 4.137e-4
-0.091, 3.888e-4
-0.090, 3.653e-4
-0.089, 3.436e-4
-0.088, 3.234e-4
-0.087, 3.039e-4
-0.086, 2.855e-4
-0.085, 2.681e-4
-0.084, 2.514e-4
-0.083, 2.353e-4
-0.082, 2.201e-4
-0.081, 2.053e-4
-0.080, 1.917e-4
-0.079, 1.781e-4
-0.078, 1.650e-4
-0.077, 1.528e-4
-0.076, 1.408e-4
-0.075, 1.294e-4
-0.074, 1.183e-4
-0.073, 1.072e-4
-0.072, 9.698e-5
-0.071, 8.650e-5
-0.070, 7.605e-5
-0.069, 6.642e-5
-0.068, 5.742e-5
-0.067, 4.889e-5
-0.066, 4.048e-5
-0.065, 3.217e-5
-0.064, 2.411e-5
-0.063, 1.628e-5
-0.062, 8.751e-6
-0.061, 1.482e-6
-0.060, -5.581e-6
-0.059, -1.249e-5
-0.058, -1.944e-5
-0.057, -2.612e-5
-0.056, -3.245e-5
-0.055, -3.836e-5
-0.054, -4.447e-5
-0.053, -5.039e-5
-0.052, -5.637e-5
-0.051, -6.202e-5
-0.050, -6.741e-5
-0.049, -7.263e-5
-0.048, -7.770e-5
-0.047, -8.277e-5
-0.046, -8.754e-5
-0.045, -9.223e-5
-0.044, -9.717e-5
-0.043, -1.015e-4
-0.042, -1.057e-4
-0.041, -1.102e-4
-0.040, -1.141e-4
-0.039, -1.184e-4
-0.038, -1.224e-4
-0.037, -1.262e-4
-0.036, -1.302e-4
-0.035, -1.337e-4
-0.034, -1.377e-4
-0.033, -1.413e-4
-0.032, -1.446e-4
-0.031, -1.482e-4
-0.030, -1.515e-4
-0.029, -1.551e-4
-0.028, -1.581e-4
-0.027, -1.614e-4
-0.026, -1.645e-4
-0.025, -1.677e-4
-0.024, -1.705e-4
-0.023, -1.734e-4
-0.022, -1.764e-4
-0.021, -1.790e-4
-0.020, -1.819e-4
-0.019, -1.843e-4
-0.018, -1.869e-4
-0.017, -1.896e-4
-0.016, -1.920e-4
-0.015, -1.946e-4
-0.014, -1.971e-4
-0.013, -1.993e-4
-0.012, -2.014e-4
-0.011, -2.036e-4
-0.010, -2.058e-4
-0.009, -2.082e-4
-0.008, -2.102e-4
-0.007, -2.123e-4
-0.006, -2.147e-4
-0.005, -2.164e-4
-0.004, -2.184e-4
-0.003, -2.202e-4
-0.002, -2.222e-4
-0.001, -2.241e-4
-0.000, -2.267e-4
0.001, -2.285e-4
0.002, -2.299e-4
0.003, -2.314e-4
0.004, -2.331e-4
0.005, -2.347e-4
0.006, -2.364e-4
0.007, -2.379e-4
0.008, -2.391e-4
0.009, -2.408e-4
0.010, -2.423e-4
0.011, -2.436e-4
0.012, -2.451e-4
0.013, -2.466e-4
0.014, -2.479e-4
0.015, -2.495e-4
0.016, -2.506e-4
0.017, -2.517e-4
0.018, -2.533e-4
0.019, -2.544e-4
0.020, -2.557e-4
0.021, -2.567e-4
0.022, -2.578e-4
0.023, -2.592e-4
0.024, -2.598e-4
0.025, -2.612e-4
0.026, -2.625e-4
0.027, -2.632e-4
0.028, -2.644e-4
0.029, -2.650e-4
0.030, -2.662e-4
0.031, -2.671e-4
0.032, -2.679e-4
0.033, -2.689e-4
0.034, -2.697e-4
0.035, -2.704e-4
0.036, -2.713e-4
0.037, -2.721e-4
0.038, -2.729e-4
0.039, -2.738e-4
0.040, -2.744e-4
0.041, -2.753e-4
0.042, -2.759e-4
0.043, -2.765e-4
0.044, -2.772e-4
0.045, -2.779e-4
0.046, -2.786e-4
0.047, -2.793e-4
0.048, -2.797e-4
0.049, -2.802e-4
0.050, -2.809e-4
0.051, -2.815e-4
0.052, -2.822e-4
0.053, -2.825e-4
0.054, -2.829e-4
0.055, -2.837e-4
0.056, -2.839e-4
0.057, -2.843e-4
0.058, -2.849e-4
0.059, -2.854e-4
0.060, -2.859e-4
0.061, -2.861e-4
0.062, -2.865e-4
0.063, -2.867e-4
0.064, -2.869e-4
0.065, -2.872e-4
0.066, -2.877e-4
0.067, -2.880e-4
0.068, -2.885e-4
0.069, -2.885e-4
0.070, -2.889e-4
0.071, -2.892e-4
0.072, -2.895e-4
0.073, -2.897e-4
0.074, -2.900e-4
0.075, -2.899e-4
0.076, -2.903e-4
0.077, -2.905e-4
0.078, -2.905e-4
0.079, -2.909e-4
0.080, -2.909e-4
0.081, -2.910e-4
0.082, -2.911e-4
0.083, -2.913e-4
0.084, -2.915e-4
0.085, -2.916e-4
0.086, -2.917e-4
0.087, -2.919e-4
0.088, -2.916e-4
0.089, -2.918e-4
0.090, -2.919e-4
0.091, -2.918e-4
0.092, -2.920e-4
0.093, -2.919e-4
0.094, -2.921e-4
0.095, -2.922e-4
0.096, -2.921e-4
0.097, -2.922e-4
0.098, -2.921e-4
0.099, -2.921e-4
0.100, -2.922e-4
0.101, -2.921e-4
0.102, -2.924e-4
0.103, -2.925e-4
0.104, -2.923e-4
0.105, -2.922e-4
0.106, -2.921e-4
0.107, -2.923e-4
0.108, -2.920e-4
0.109, -2.921e-4
0.110, -2.921e-4
0.111, -2.920e-4
0.112, -2.917e-4
0.113, -2.916e-4
0.114, -2.916e-4
0.115, -2.916e-4
0.116, -2.915e-4
0.117, -2.914e-4
0.118, -2.914e-4
0.119, -2.914e-4
0.120, -2.910e-4
0.121, -2.912e-4
0.122, -2.912e-4
0.123, -2.910e-4
0.124, -2.909e-4
0.125, -2.908e-4
0.126, -2.907e-4
0.127, -2.907e-4
0.128, -2.904e-4
0.129, -2.904e-4
0.130, -2.903e-4
0.131, -2.903e-4
0.132, -2.902e-4
0.133, -2.900e-4
0.134, -2.899e-4
0.135, -2.899e-4
0.136, -2.896e-4
0.137, -2.896e-4
0.138, -2.895e-4
0.139, -2.894e-4
0.140, -2.894e-4
0.141, -2.892e-4
0.142, -2.892e-4
0.143, -2.890e-4
0.144, -2.887e-4
0.145, -2.889e-4
0.146, -2.887e-4
0.147, -2.887e-4
0.148, -2.886e-4
0.149, -2.882e-4
0.150, -2.882e-4
0.151, -2.881e-4
0.152, -2.880e-4
0.153, -2.880e-4
0.154, -2.884e-4
0.155, -2.881e-4
0.156, -2.879e-4
0.157, -2.878e-4
0.158, -2.877e-4
0.159, -2.876e-4
0.160, -2.875e-4
0.161, -2.876e-4
0.162, -2.873e-4
0.163, -2.872e-4
0.164, -2.872e-4
0.165, -2.870e-4
0.166, -2.869e-4
0.167, -2.871e-4
0.168, -2.867e-4
0.169, -2.869e-4
0.170, -2.866e-4
0.171, -2.867e-4
0.172, -2.866e-4
0.173, -2.867e-4
0.174, -2.866e-4
0.175, -2.867e-4
0.176, -2.864e-4
0.177, -2.865e-4
0.178, -2.864e-4
0.179, -2.864e-4
0.180, -2.863e-4
0.181, -2.864e-4
0.182, -2.865e-4
0.183, -2.861e-4
0.184, -2.862e-4
0.185, -2.863e-4
0.186, -2.862e-4
0.187, -2.862e-4
0.188, -2.861e-4
0.189, -2.861e-4
0.190, -2.862e-4
0.191, -2.862e-4
0.192, -2.861e-4
0.193, -2.861e-4
0.194, -2.861e-4
0.195, -2.859e-4
0.196, -2.861e-4
0.197, -2.862e-4
0.198, -2.863e-4
0.199, -2.865e-4
0.200, -2.864e-4
0.201, -2.865e-4
0.202, -2.865e-4
0.203, -2.864e-4
0.204, -2.867e-4
0.205, -2.867e-4
0.206, -2.868e-4
0.207, -2.869e-4
0.208, -2.870e-4
0.209, -2.870e-4
0.210, -2.872e-4
0.211, -2.873e-4
0.212, -2.875e-4
0.213, -2.874e-4
0.214, -2.876e-4
0.215, -2.876e-4
0.216, -2.876e-4
0.217, -2.878e-4
0.218, -2.879e-4
0.219, -2.881e-4
0.220, -2.883e-4
0.221, -2.882e-4
0.222, -2.883e-4
0.223, -2.886e-4
0.224, -2.892e-4
0.225, -2.893e-4
0.226, -2.893e-4
0.227, -2.893e-4
0.228, -2.896e-4
0.229, -2.897e-4
0.230, -2.901e-4
0.231, -2.903e-4
0.232, -2.904e-4
0.233, -2.905e-4
0.234, -2.906e-4
0.235, -2.907e-4
0.236, -2.909e-4
0.237, -2.915e-4
0.238, -2.915e-4
0.239, -2.920e-4
0.240, -2.920e-4
0.241, -2.924e-4
0.242, -2.926e-4
0.243, -2.930e-4
0.244, -2.935e-4
0.245, -2.936e-4
0.246, -2.936e-4
0.247, -2.941e-4
0.248, -2.944e-4
0.249, -2.948e-4
0.250, -2.951e-4
0.251, -2.953e-4
0.252, -2.957e-4
0.253, -2.960e-4
0.254, -2.964e-4
0.255, -2.966e-4
0.256, -2.972e-4
0.257, -2.976e-4
0.258, -2.979e-4
0.259, -2.981e-4
0.260, -2.987e-4
0.261, -2.986e-4
0.262, -2.991e-4
0.263, -3.000e-4
0.264, -3.000e-4
0.265, -3.005e-4
0.266, -3.009e-4
0.267, -3.010e-4
0.268, -3.012e-4
0.269, -3.019e-4
0.270, -3.024e-4
0.271, -3.028e-4
0.272, -3.029e-4
0.273, -3.035e-4
0.274, -3.039e-4
0.275, -3.046e-4
0.276, -3.051e-4
0.277, -3.053e-4
0.278, -3.055e-4
0.279, -3.062e-4
0.280, -3.065e-4
0.281, -3.072e-4
0.282, -3.076e-4
0.283, -3.080e-4
0.284, -3.085e-4
0.285, -3.087e-4
0.286, -3.091e-4
0.287, -3.097e-4
0.288, -3.102e-4
0.289, -3.108e-4
0.290, -3.112e-4
0.291, -3.117e-4
0.292, -3.119e-4
0.293, -3.122e-4
0.294, -3.128e-4
0.295, -3.131e-4
0.296, -3.136e-4
0.297, -3.141e-4
0.298, -3.146e-4
0.299, -3.150e-4
0.300, -3.154e-4
0.301, -3.159e-4
0.302, -3.161e-4
0.303, -3.165e-4
0.304, -3.168e-4
0.305, -3.173e-4
0.306, -3.176e-4
0.307, -3.183e-4
0.308, -3.187e-4
0.309, -3.190e-4
0.310, -3.194e-4
0.311, -3.197e-4
0.312, -3.199e-4
0.313, -3.205e-4
0.314, -3.207e-4
0.315, -3.212e-4
0.316, -3.215e-4
0.317, -3.219e-4
0.318, -3.222e-4
0.319, -3.227e-4
0.320, -3.230e-4
0.321, -3.234e-4
0.322, -3.238e-4
0.323, -3.240e-4
0.324, -3.243e-4
0.325, -3.246e-4
0.326, -3.250e-4
0.327, -3.256e-4
0.328, -3.258e-4
0.329, -3.262e-4
0.330, -3.269e-4
0.331, -3.271e-4
0.332, -3.277e-4
0.333, -3.279e-4
0.334, -3.281e-4
0.335, -3.284e-4
0.336, -3.286e-4
0.337, -3.289e-4
0.338, -3.293e-4
0.339, -3.298e-4
0.340, -3.302e-4
0.341, -3.301e-4
0.342, -3.303e-4
0.343, -3.306e-4
0.344, -3.310e-4
0.345, -3.313e-4
0.346, -3.313e-4
0.347, -3.315e-4
0.348, -3.317e-4
0.349, -3.319e-4
0.350, -3.320e-4
0.351, -3.322e-4
0.352, -3.327e-4
0.353, -3.328e-4
0.354, -3.325e-4
0.355, -3.327e-4
0.356, -3.330e-4
0.357, -3.329e-4
0.358, -3.331e-4
0.359, -3.335e-4
0.360, -3.333e-4
0.361, -3.337e-4
0.362, -3.337e-4
0.363, -3.336e-4
0.364, -3.339e-4
0.365, -3.339e-4
0.366, -3.338e-4
0.367, -3.341e-4
0.368, -3.339e-4
0.369, -3.340e-4
0.370, -3.340e-4
0.371, -3.342e-4
0.372, -3.340e-4
0.373, -3.339e-4
0.374, -3.337e-4
0.375, -3.341e-4
0.376, -3.338e-4
0.377, -3.341e-4
0.378, -3.339e-4
0.379, -3.337e-4
0.380, -3.338e-4
0.381, -3.334e-4
0.382, -3.335e-4
0.383, -3.333e-4
0.384, -3.332e-4
0.385, -3.329e-4
0.386, -3.329e-4
0.387, -3.325e-4
0.388, -3.325e-4
0.389, -3.321e-4
0.390, -3.320e-4
0.391, -3.321e-4
0.392, -3.318e-4
0.393, -3.317e-4
0.394, -3.312e-4
0.395, -3.309e-4
0.396, -3.308e-4
0.397, -3.305e-4
0.398, -3.304e-4
0.399, -3.301e-4
0.400, -3.298e-4
0.401, -3.295e-4
0.402, -3.294e-4
0.403, -3.292e-4
0.404, -3.292e-4
0.405, -3.287e-4
0.406, -3.285e-4
0.407, -3.283e-4
0.408, -3.280e-4
0.409, -3.279e-4
0.410, -3.275e-4
0.411, -3.273e-4
0.412, -3.272e-4
0.413, -3.268e-4
0.414, -3.264e-4
0.415, -3.261e-4
0.416, -3.260e-4
0.417, -3.258e-4
0.418, -3.253e-4
0.419, -3.252e-4
0.420, -3.250e-4
0.421, -3.244e-4
0.422, -3.242e-4
0.423, -3.239e-4
0.424, -3.235e-4
0.425, -3.232e-4
0.426, -3.230e-4
0.427, -3.227e-4
0.428, -3.224e-4
0.429, -3.221e-4
0.430, -3.218e-4
0.431, -3.215e-4
0.432, -3.213e-4
0.433, -3.210e-4
0.434, -3.207e-4
0.435, -3.204e-4
0.436, -3.204e-4
0.437, -3.198e-4
0.438, -3.198e-4
0.439, -3.195e-4
0.440, -3.191e-4
0.441, -3.190e-4
0.442, -3.188e-4
0.443, -3.185e-4
0.444, -3.183e-4
0.445, -3.180e-4
0.446, -3.177e-4
0.447, -3.177e-4
0.448, -3.172e-4
0.449, -3.171e-4
0.450, -3.169e-4
0.451, -3.163e-4
0.452, -3.163e-4
0.453, -3.160e-4
0.454, -3.156e-4
0.455, -3.155e-4
0.456, -3.152e-4
0.457, -3.150e-4
0.458, -3.148e-4
0.459, -3.143e-4
0.460, -3.143e-4
0.461, -3.144e-4
0.462, -3.142e-4
0.463, -3.138e-4
0.464, -3.133e-4
0.465, -3.133e-4
0.466, -3.132e-4
0.467, -3.130e-4
0.468, -3.128e-4
0.469, -3.125e-4
0.470, -3.124e-4
0.471, -3.122e-4
0.472, -3.117e-4
0.473, -3.116e-4
0.474, -3.113e-4
0.475, -3.112e-4
0.476, -3.108e-4
0.477, -3.105e-4
0.478, -3.102e-4
0.479, -3.101e-4
0.480, -3.097e-4
0.481, -3.098e-4
0.482, -3.095e-4
0.483, -3.091e-4
0.484, -3.090e-4
0.485, -3.085e-4
0.486, -3.085e-4
0.487, -3.086e-4
0.488, -3.085e-4
0.489, -3.082e-4
0.490, -3.079e-4
0.491, -3.077e-4
0.492, -3.076e-4
0.493, -3.071e-4
0.494, -3.071e-4
0.495, -3.071e-4
0.496, -3.068e-4
0.497, -3.065e-4
0.498, -3.063e-4
0.499, -3.062e-4
0.500, -3.063e-4
0.501, -3.057e-4
0.502, -3.056e-4
0.503, -3.054e-4
0.504, -3.052e-4
0.505, -3.052e-4
0.506, -3.050e-4
0.507, -3.049e-4
0.508, -3.047e-4
0.509, -3.044e-4
0.510, -3.043e-4
0.511, -3.042e-4
0.512, -3.044e-4
0.513, -3.043e-4
0.514, -3.038e-4
0.515, -3.038e-4
0.516, -3.034e-4
0.517, -3.031e-4
0.518, -3.029e-4
0.519, -3.029e-4
0.520, -3.024e-4
0.521, -3.024e-4
0.522, -3.021e-4
0.523, -3.020e-4
0.524, -3.021e-4
0.525, -3.017e-4
0.526, -3.016e-4
0.527, -3.014e-4
0.528, -3.011e-4
0.529, -3.010e-4
0.530, -3.007e-4
0.531, -3.009e-4
0.532, -3.007e-4
0.533, -3.005e-4
0.534, -3.005e-4
0.535, -3.004e-4
0.536, -2.999e-4
0.537, -2.998e-4
0.538, -3.000e-4
0.539, -2.996e-4
0.540, -2.995e-4
0.541, -2.991e-4
0.542, -2.989e-4
0.543, -2.988e-4
0.544, -2.985e-4
0.545, -2.984e-4
0.546, -2.982e-4
0.547, -2.981e-4
0.548, -2.979e-4
0.549, -2.974e-4
0.550, -2.973e-4
0.551, -2.971e-4
0.552, -2.970e-4
0.553, -2.969e-4
0.554, -2.965e-4
0.555, -2.962e-4
0.556, -2.964e-4
0.557, -2.961e-4
0.558, -2.955e-4
0.559, -2.954e-4
0.560, -2.952e-4
0.561, -2.950e-4
0.562, -2.947e-4
0.563, -2.950e-4
0.564, -2.950e-4
0.565, -2.945e-4
0.566, -2.942e-4
0.567, -2.941e-4
0.568, -2.937e-4
0.569, -2.933e-4
0.570, -2.933e-4
0.571, -2.931e-4
0.572, -2.930e-4
0.573, -2.924e-4
0.574, -2.923e-4
0.575, -2.921e-4
0.576, -2.916e-4
0.577, -2.914e-4
0.578, -2.912e-4
0.579, -2.910e-4
0.580, -2.909e-4
0.581, -2.908e-4
0.582, -2.907e-4
0.583, -2.906e-4
0.584, -2.903e-4
0.585, -2.901e-4
0.586, -2.898e-4
0.587, -2.894e-4
0.588, -2.894e-4
0.589, -2.890e-4
0.590, -2.889e-4
0.591, -2.887e-4
0.592, -2.882e-4
0.593, -2.881e-4
0.594, -2.878e-4
0.595, -2.877e-4
0.596, -2.876e-4
0.597, -2.870e-4
0.598, -2.866e-4
0.599, -2.867e-4
0.600, -2.863e-4
0.601, -2.862e-4
0.602, -2.856e-4
0.603, -2.855e-4
0.604, -2.852e-4
0.605, -2.851e-4
0.606, -2.849e-4
0.607, -2.845e-4
0.608, -2.845e-4
0.609, -2.842e-4
0.610, -2.839e-4
0.611, -2.836e-4
0.612, -2.835e-4
0.613, -2.832e-4
0.614, -2.831e-4
0.615, -2.830e-4
0.616, -2.824e-4
0.617, -2.822e-4
0.618, -2.817e-4
0.619, -2.817e-4
0.620, -2.814e-4
0.621, -2.811e-4
0.622, -2.809e-4
0.623, -2.808e-4
0.624, -2.801e-4
0.625, -2.799e-4
0.626, -2.799e-4
0.627, -2.795e-4
0.628, -2.793e-4
0.629, -2.788e-4
0.630, -2.786e-4
0.631, -2.786e-4
0.632, -2.784e-4
0.633, -2.781e-4
0.634, -2.780e-4
0.635, -2.776e-4
0.636, -2.776e-4
0.637, -2.771e-4
0.638, -2.768e-4
0.639, -2.768e-4
0.640, -2.767e-4
0.641, -2.764e-4
0.642, -2.764e-4
0.643, -2.759e-4
0.644, -2.758e-4
0.645, -2.753e-4
0.646, -2.751e-4
0.647, -2.752e-4
0.648, -2.748e-4
0.649, -2.746e-4
0.650, -2.742e-4
0.651, -2.742e-4
0.652, -2.742e-4
0.653, -2.736e-4
0.654, -2.736e-4
0.655, -2.735e-4
0.656, -2.728e-4
0.657, -2.729e-4
0.658, -2.726e-4
0.659, -2.722e-4
0.660, -2.723e-4
0.661, -2.720e-4
0.662, -2.718e-4
0.663, -2.715e-4
0.664, -2.712e-4
0.665, -2.712e-4
0.666, -2.712e-4
0.667, -2.708e-4
0.668, -2.707e-4
0.669, -2.702e-4
0.670, -2.702e-4
0.671, -2.698e-4
0.672, -2.697e-4
0.673, -2.696e-4
0.674, -2.694e-4
0.675, -2.691e-4
0.676, -2.690e-4
0.677, -2.685e-4
0.678, -2.682e-4
0.679, -2.685e-4
0.680, -2.680e-4
0.681, -2.679e-4
0.682, -2.678e-4
0.683, -2.673e-4
0.684, -2.674e-4
0.685, -2.672e-4
0.686, -2.671e-4
0.687, -2.671e-4
0.688, -2.666e-4
0.689, -2.663e-4
0.690, -2.663e-4
0.691, -2.662e-4
0.692, -2.662e-4
0.693, -2.657e-4
0.694, -2.657e-4
0.695, -2.655e-4
0.696, -2.652e-4
0.697, -2.652e-4
0.698, -2.649e-4
0.699, -2.645e-4
0.700, -2.644e-4
0.701, -2.641e-4
0.702, -2.641e-4
0.703, -2.637e-4
0.704, -2.635e-4
0.705, -2.634e-4
0.706, -2.630e-4
0.707, -2.629e-4
0.708, -2.630e-4
0.709, -2.627e-4
0.710, -2.626e-4
0.711, -2.626e-4
0.712, -2.622e-4
0.713, -2.621e-4
0.714, -2.616e-4
0.715, -2.617e-4
0.716, -2.617e-4
0.717, -2.618e-4
0.718, -2.614e-4
0.719, -2.613e-4
0.720, -2.609e-4
0.721, -2.608e-4
0.722, -2.608e-4
0.723, -2.607e-4
0.724, -2.605e-4
0.725, -2.601e-4
0.726, -2.600e-4
0.727, -2.600e-4
0.728, -2.598e-4
0.729, -2.595e-4
0.730, -2.594e-4
0.731, -2.590e-4
0.732, -2.590e-4
0.733, -2.590e-4
0.734, -2.587e-4
0.735, -2.586e-4
0.736, -2.586e-4
0.737, -2.585e-4
0.738, -2.582e-4
0.739, -2.581e-4
0.740, -2.582e-4
0.741, -2.578e-4
0.742, -2.580e-4
0.743, -2.582e-4
0.744, -2.577e-4
0.745, -2.577e-4
0.746, -2.574e-4
0.747, -2.573e-4
0.748, -2.572e-4
0.749, -2.570e-4
0.750, -2.567e-4
0.751, -2.568e-4
0.752, -2.566e-4
0.753, -2.566e-4
0.754, -2.565e-4
0.755, -2.562e-4
0.756, -2.562e-4
0.757, -2.561e-4
0.758, -2.559e-4
0.759, -2.558e-4
0.760, -2.555e-4
0.761, -2.555e-4
0.762, -2.555e-4
0.763, -2.553e-4
0.764, -2.553e-4
0.765, -2.550e-4
0.766, -2.550e-4
0.767, -2.551e-4
0.768, -2.553e-4
0.769, -2.551e-4
0.770, -2.550e-4
0.771, -2.546e-4
0.772, -2.548e-4
0.773, -2.548e-4
0.774, -2.549e-4
0.775, -2.552e-4
0.776, -2.548e-4
0.777, -2.548e-4
0.778, -2.546e-4
0.779, -2.545e-4
0.780, -2.546e-4
0.781, -2.544e-4
0.782, -2.544e-4
0.783, -2.543e-4
0.784, -2.541e-4
0.785, -2.542e-4
0.786, -2.540e-4
0.787, -2.542e-4
0.788, -2.546e-4
0.789, -2.544e-4
0.790, -2.545e-4
0.791, -2.546e-4
0.792, -2.544e-4
0.793, -2.545e-4
0.794, -2.543e-4
0.795, -2.542e-4
0.796, -2.544e-4
0.797, -2.542e-4
0.798, -2.543e-4
0.799, -2.545e-4
0.800, -2.545e-4
0.801, -2.547e-4
0.802, -2.547e-4
0.803, -2.544e-4
0.804, -2.547e-4
0.805, -2.546e-4
0.806, -2.546e-4
0.807, -2.547e-4
0.808, -2.544e-4
0.809, -2.545e-4
0.810, -2.544e-4
0.811, -2.547e-4
0.812, -2.548e-4
0.813, -2.550e-4
0.814, -2.551e-4
0.815, -2.554e-4
0.816, -2.552e-4
0.817, -2.554e-4
0.818, -2.553e-4
0.819, -2.564e-4
0.820, -2.568e-4
0.821, -2.566e-4
0.822, -2.563e-4
0.823, -2.563e-4
0.824, -2.565e-4
0.825, -2.565e-4
0.826, -2.568e-4
0.827, -2.567e-4
0.828, -2.570e-4
0.829, -2.570e-4
0.830, -2.571e-4
0.831, -2.572e-4
0.832, -2.572e-4
0.833, -2.576e-4
0.834, -2.575e-4
0.835, -2.579e-4
0.836, -2.579e-4
0.837, -2.578e-4
0.838, -2.580e-4
0.839, -2.584e-4
0.840, -2.585e-4
0.841, -2.588e-4
0.842, -2.591e-4
0.843, -2.591e-4
0.844, -2.593e-4
0.845, -2.598e-4
0.846, -2.597e-4
0.847, -2.602e-4
0.848, -2.601e-4
0.849, -2.608e-4
0.850, -2.606e-4
0.851, -2.609e-4
0.852, -2.615e-4
0.853, -2.616e-4
0.854, -2.616e-4
0.855, -2.621e-4
0.856, -2.621e-4
0.857, -2.621e-4
0.858, -2.624e-4
0.859, -2.628e-4
0.860, -2.634e-4
0.861, -2.634e-4
0.862, -2.637e-4
0.863, -2.641e-4
0.864, -2.643e-4
0.865, -2.646e-4
0.866, -2.650e-4
0.867, -2.652e-4
0.868, -2.656e-4
0.869, -2.656e-4
0.870, -2.662e-4
0.871, -2.665e-4
0.872, -2.669e-4
0.873, -2.671e-4
0.874, -2.674e-4
0.875, -2.677e-4
0.876, -2.680e-4
0.877, -2.684e-4
0.878, -2.687e-4
0.879, -2.692e-4
0.880, -2.691e-4
0.881, -2.697e-4
0.882, -2.702e-4
0.883, -2.707e-4
0.884, -2.712e-4
0.885, -2.714e-4
0.886, -2.718e-4
0.887, -2.721e-4
0.888, -2.725e-4
0.889, -2.730e-4
0.890, -2.737e-4
0.891, -2.738e-4
0.892, -2.744e-4
0.893, -2.744e-4
0.894, -2.751e-4
0.895, -2.754e-4
0.896, -2.758e-4
0.897, -2.763e-4
0.898, -2.768e-4
0.899, -2.770e-4
0.900, -2.775e-4
0.901, -2.776e-4
0.902, -2.783e-4
0.903, -2.789e-4
0.904, -2.791e-4
0.905, -2.797e-4
0.906, -2.803e-4
0.907, -2.806e-4
0.908, -2.813e-4
0.909, -2.816e-4
0.910, -2.818e-4
0.911, -2.824e-4
0.912, -2.828e-4
0.913, -2.833e-4
0.914, -2.839e-4
0.915, -2.844e-4
0.916, -2.849e-4
0.917, -2.850e-4
0.918, -2.855e-4
0.919, -2.859e-4
0.920, -2.863e-4
0.921, -2.870e-4
0.922, -2.877e-4
0.923, -2.881e-4
0.924, -2.886e-4
0.925, -2.887e-4
0.926, -2.889e-4
0.927, -2.896e-4
0.928, -2.899e-4
0.929, -2.907e-4
0.930, -2.907e-4
0.931, -2.911e-4
0.932, -2.917e-4
0.933, -2.918e-4
0.934, -2.920e-4
0.935, -2.924e-4
0.936, -2.928e-4
0.937, -2.936e-4
0.938, -2.941e-4
0.939, -2.947e-4
0.940, -2.952e-4
0.941, -2.957e-4
0.942, -2.963e-4
0.943, -2.970e-4
0.944, -2.972e-4
0.945, -2.980e-4
0.946, -2.978e-4
0.947, -2.985e-4
0.948, -2.990e-4
0.949, -2.990e-4
0.950, -2.994e-4
0.951, -2.998e-4
0.952, -3.000e-4
0.953, -3.005e-4
0.954, -3.010e-4
0.955, -3.013e-4
0.956, -3.017e-4
0.957, -3.019e-4
0.958, -3.022e-4
0.959, -3.030e-4
0.960, -3.032e-4
0.961, -3.036e-4
0.962, -3.040e-4
0.963, -3.046e-4
0.964, -3.048e-4
0.965, -3.048e-4
0.966, -3.054e-4
0.967, -3.061e-4
0.968, -3.060e-4
0.969, -3.067e-4
0.970, -3.071e-4
0.971, -3.073e-4
0.972, -3.081e-4
0.973, -3.081e-4
0.974, -3.087e-4
0.975, -3.087e-4
0.976, -3.085e-4
0.977, -3.091e-4
0.978, -3.092e-4
0.979, -3.098e-4
0.980, -3.104e-4
0.981, -3.101e-4
0.982, -3.101e-4
0.983, -3.110e-4
0.984, -3.111e-4
0.985, -3.114e-4
0.986, -3.117e-4
0.987, -3.118e-4
0.988, -3.123e-4
0.989, -3.124e-4
0.990, -3.126e-4
0.991, -3.128e-4
0.992, -3.133e-4
0.993, -3.137e-4
0.994, -3.138e-4
0.995, -3.140e-4
0.996, -3.143e-4
0.997, -3.144e-4
0.998, -3.146e-4
0.999, -3.150e-4
1.000, -3.149e-4
1.001, -3.153e-4
1.002, -3.154e-4
1.003, -3.156e-4
1.004, -3.159e-4
1.005, -3.164e-4
1.006, -3.161e-4
1.007, -3.163e-4
1.008, -3.165e-4
1.009, -3.167e-4
1.010, -3.170e-4
1.011, -3.171e-4
1.012, -3.174e-4
1.013, -3.174e-4
1.014, -3.176e-4
1.015, -3.179e-4
1.016, -3.179e-4
1.017, -3.183e-4
1.018, -3.185e-4
1.019, -3.185e-4
1.020, -3.191e-4
1.021, -3.189e-4
1.022, -3.192e-4
1.023, -3.195e-4
1.024, -3.198e-4
1.025, -3.202e-4
1.026, -3.205e-4
1.027, -3.204e-4
1.028, -3.209e-4
1.029, -3.209e-4
1.030, -3.212e-4
1.031, -3.215e-4
1.032, -3.216e-4
1.033, -3.219e-4
1.034, -3.219e-4
1.035, -3.221e-4
1.036, -3.226e-4
1.037, -3.227e-4
1.038, -3.231e-4
1.039, -3.237e-4
1.040, -3.237e-4
1.041, -3.241e-4
1.042, -3.243e-4
1.043, -3.249e-4
1.044, -3.255e-4
1.045, -3.255e-4
1.046, -3.261e-4
1.047, -3.265e-4
1.048, -3.269e-4
1.049, -3.275e-4
1.050, -3.281e-4
1.051, -3.285e-4
1.052, -3.289e-4
1.053, -3.291e-4
1.054, -3.300e-4
1.055, -3.303e-4
1.056, -3.311e-4
1.057, -3.320e-4
1.058, -3.324e-4
1.059, -3.326e-4
1.060, -3.333e-4
1.061, -3.337e-4
1.062, -3.346e-4
1.063, -3.355e-4
1.064, -3.359e-4
1.065, -3.367e-4
1.066, -3.373e-4
1.067, -3.382e-4
1.068, -3.390e-4
1.069, -3.401e-4
1.070, -3.410e-4
1.071, -3.417e-4
1.072, -3.425e-4
1.073, -3.435e-4
1.074, -3.443e-4
1.075, -3.457e-4
1.076, -3.470e-4
1.077, -3.479e-4
1.078, -3.492e-4
1.079, -3.505e-4
1.080, -3.519e-4
1.081, -3.533e-4
1.082, -3.547e-4
1.083, -3.565e-4
1.084, -3.583e-4
1.085, -3.595e-4
1.086, -3.613e-4
1.087, -3.633e-4
1.088, -3.651e-4
1.089, -3.672e-4
1.090, -3.693e-4
1.091, -3.713e-4
1.092, -3.738e-4
1.093, -3.758e-4
1.094, -3.790e-4
1.095, -3.821e-4
1.096, -3.848e-4
1.097, -3.875e-4
1.098, -3.910e-4
1.099, -3.944e-4
1.100, -3.564e-4
1.099, -2.539e-4
1.098, -1.754e-4
1.097, -1.165e-4
1.096, -7.026e-5
1.095, -3.339e-5
1.094, -3.586e-6
1.093, 2.074e-5
1.092, 4.130e-5
1.091, 5.796e-5
1.090, 7.282e-5
1.089, 8.598e-5
1.088, 9.704e-5
1.087, 1.067e-4
1.086, 1.151e-4
1.085, 1.229e-4
1.084, 1.296e-4
1.083, 1.349e-4
1.082, 1.406e-4
1.081, 1.453e-4
1.080, 1.497e-4
1.079, 1.540e-4
1.078, 1.573e-4
1.077, 1.607e-4
1.076, 1.639e-4
1.075, 1.671e-4
1.074, 1.692e-4
1.073, 1.716e-4
1.072, 1.740e-4
1.071, 1.761e-4
1.070, 1.777e-4
1.069, 1.794e-4
1.068, 1.814e-4
1.067, 1.826e-4
1.066, 1.843e-4
1.065, 1.852e-4
1.064, 1.864e-4
1.063, 1.879e-4
1.062, 1.889e-4
1.061, 1.899e-4
1.060, 1.908e-4
1.059, 1.916e-4
1.058, 1.928e-4
1.057, 1.932e-4
1.056, 1.943e-4
1.055, 1.955e-4
1.054, 1.961e-4
1.053, 1.965e-4
1.052, 1.974e-4
1.051, 1.977e-4
1.050, 1.987e-4
1.049, 1.993e-4
1.048, 1.999e-4
1.047, 2.006e-4
1.046, 2.009e-4
1.045, 2.015e-4
1.044, 2.018e-4
1.043, 2.027e-4
1.042, 2.029e-4
1.041, 2.036e-4
1.040, 2.039e-4
1.039, 2.044e-4
1.038, 2.047e-4
1.037, 2.055e-4
1.036, 2.056e-4
1.035, 2.058e-4
1.034, 2.064e-4
1.033, 2.063e-4
1.032, 2.070e-4
1.031, 2.073e-4
1.030, 2.076e-4
1.029, 2.077e-4
1.028, 2.083e-4
1.027, 2.087e-4
1.026, 2.089e-4
1.025, 2.095e-4
1.024, 2.099e-4
1.023, 2.103e-4
1.022, 2.108e-4
1.021, 2.106e-4
1.020, 2.111e-4
1.019, 2.115e-4
1.018, 2.118e-4
1.017, 2.124e-4
1.016, 2.123e-4
1.015, 2.126e-4
1.014, 2.125e-4
1.013, 2.131e-4
1.012, 2.134e-4
1.011, 2.134e-4
1.010, 2.139e-4
1.009, 2.141e-4
1.008, 2.144e-4
1.007, 2.148e-4
1.006, 2.149e-4
1.005, 2.152e-4
1.004, 2.155e-4
1.003, 2.156e-4
1.002, 2.158e-4
1.001, 2.158e-4
1.000, 2.162e-4
0.999, 2.168e-4
0.998, 2.166e-4
0.997, 2.170e-4
0.996, 2.170e-4
0.995, 2.170e-4
0.994, 2.173e-4
0.993, 2.174e-4
0.992, 2.179e-4
0.991, 2.181e-4
0.990, 2.183e-4
0.989, 2.181e-4
0.988, 2.183e-4
0.987, 2.184e-4
0.986, 2.186e-4
0.985, 2.190e-4
0.984, 2.190e-4
0.983, 2.193e-4
0.982, 2.191e-4
0.981, 2.194e-4
0.980, 2.195e-4
0.979, 2.198e-4
0.978, 2.198e-4
0.977, 2.199e-4
0.976, 2.200e-4
0.975, 2.203e-4
0.974, 2.203e-4
0.973, 2.204e-4
0.972, 2.206e-4
0.971, 2.203e-4
0.970, 2.204e-4
0.969, 2.207e-4
0.968, 2.206e-4
0.967, 2.206e-4
0.966, 2.205e-4
0.965, 2.207e-4
0.964, 2.208e-4
0.963, 2.204e-4
0.962, 2.204e-4
0.961, 2.204e-4
0.960, 2.203e-4
0.959, 2.203e-4
0.958, 2.200e-4
0.957, 2.201e-4
0.956, 2.202e-4
0.955, 2.199e-4
0.954, 2.204e-4
0.953, 2.202e-4
0.952, 2.202e-4
0.951, 2.197e-4
0.950, 2.198e-4
0.949, 2.195e-4
0.948, 2.197e-4
0.947, 2.197e-4
0.946, 2.195e-4
0.945, 2.194e-4
0.944, 2.193e-4
0.943, 2.192e-4
0.942, 2.188e-4
0.941, 2.189e-4
0.940, 2.190e-4
0.939, 2.186e-4
0.938, 2.187e-4
0.937, 2.184e-4
0.936, 2.183e-4
0.935, 2.182e-4
0.934, 2.178e-4
0.933, 2.176e-4
0.932, 2.177e-4
0.931, 2.171e-4
0.930, 2.170e-4
0.929, 2.172e-4
0.928, 2.167e-4
0.927, 2.166e-4
0.926, 2.164e-4
0.925, 2.161e-4
0.924, 2.158e-4
0.923, 2.155e-4
0.922, 2.160e-4
0.921, 2.160e-4
0.920, 2.155e-4
0.919, 2.152e-4
0.918, 2.150e-4
0.917, 2.146e-4
0.916, 2.142e-4
0.915, 2.141e-4
0.914, 2.141e-4
0.913, 2.140e-4
0.912, 2.135e-4
0.911, 2.134e-4
0.910, 2.129e-4
0.909, 2.124e-4
0.908, 2.127e-4
0.907, 2.121e-4
0.906, 2.120e-4
0.905, 2.115e-4
0.904, 2.116e-4
0.903, 2.113e-4
0.902, 2.111e-4
0.901, 2.108e-4
0.900, 2.107e-4
0.899, 2.102e-4
0.898, 2.100e-4
0.897, 2.099e-4
0.896, 2.095e-4
0.895, 2.092e-4
0.894, 2.091e-4
0.893, 2.088e-4
0.892, 2.085e-4
0.891, 2.081e-4
0.890, 2.076e-4
0.889, 2.077e-4
0.888, 2.075e-4
0.887, 2.073e-4
0.886, 2.068e-4
0.885, 2.066e-4
0.884, 2.062e-4
0.883, 2.056e-4
0.882, 2.058e-4
0.881, 2.054e-4
0.880, 2.050e-4
0.879, 2.049e-4
0.878, 2.045e-4
0.877, 2.045e-4
0.876, 2.044e-4
0.875, 2.040e-4
0.874, 2.036e-4
0.873, 2.037e-4
0.872, 2.029e-4
0.871, 2.028e-4
0.870, 2.029e-4
0.869, 2.029e-4
0.868, 2.024e-4
0.867, 2.017e-4
0.866, 2.015e-4
0.865, 2.012e-4
0.864, 2.012e-4
0.863, 2.011e-4
0.862, 2.007e-4
0.861, 2.005e-4
0.860, 2.004e-4
0.859, 2.000e-4
0.858, 1.999e-4
0.857, 1.996e-4
0.856, 1.990e-4
0.855, 1.990e-4
0.854, 1.986e-4
0.853, 1.985e-4
0.852, 1.986e-4
0.851, 1.980e-4
0.850, 1.980e-4
0.849, 1.978e-4
0.848, 1.974e-4
0.847, 1.973e-4
0.846, 1.973e-4
0.845, 1.969e-4
0.844, 1.971e-4
0.843, 1.965e-4
0.842, 1.963e-4
0.841, 1.966e-4
0.840, 1.960e-4
0.839, 1.962e-4
0.838, 1.959e-4
0.837, 1.955e-4
0.836, 1.956e-4
0.835, 1.952e-4
0.834, 1.952e-4
0.833, 1.948e-4
0.832, 1.949e-4
0.831, 1.947e-4
0.830, 1.946e-4
0.829, 1.941e-4
0.828, 1.944e-4
0.827, 1.938e-4
0.826, 1.939e-4
0.825, 1.941e-4
0.824, 1.936e-4
0.823, 1.933e-4
0.822, 1.932e-4
0.821, 1.933e-4
0.820, 1.932e-4
0.819, 1.942e-4
0.818, 1.938e-4
0.817, 1.935e-4
0.816, 1.931e-4
0.815, 1.932e-4
0.814, 1.926e-4
0.813, 1.929e-4
0.812, 1.931e-4
0.811, 1.926e-4
0.810, 1.925e-4
0.809, 1.923e-4
0.808, 1.920e-4
0.807, 1.921e-4
0.806, 1.918e-4
0.805, 1.918e-4
0.804, 1.919e-4
0.803, 1.915e-4
0.802, 1.916e-4
0.801, 1.919e-4
0.800, 1.918e-4
0.799, 1.916e-4
0.798, 1.917e-4
0.797, 1.915e-4
0.796, 1.916e-4
0.795, 1.914e-4
0.794, 1.914e-4
0.793, 1.916e-4
0.792, 1.913e-4
0.791, 1.915e-4
0.790, 1.913e-4
0.789, 1.913e-4
0.788, 1.914e-4
0.787, 1.913e-4
0.786, 1.911e-4
0.785, 1.914e-4
0.784, 1.912e-4
0.783, 1.915e-4
0.782, 1.911e-4
0.781, 1.910e-4
0.780, 1.913e-4
0.779, 1.909e-4
0.778, 1.912e-4
0.777, 1.912e-4
0.776, 1.910e-4
0.775, 1.914e-4
0.774, 1.911e-4
0.773, 1.911e-4
0.772, 1.913e-4
0.771, 1.911e-4
0.770, 1.912e-4
0.769, 1.912e-4
0.768, 1.912e-4
0.767, 1.916e-4
0.766, 1.913e-4
0.765, 1.914e-4
0.764, 1.915e-4
0.763, 1.914e-4
0.762, 1.915e-4
0.761, 1.919e-4
0.760, 1.915e-4
0.759, 1.916e-4
0.758, 1.915e-4
0.757, 1.916e-4
0.756, 1.917e-4
0.755, 1.914e-4
0.754, 1.917e-4
0.753, 1.919e-4
0.752, 1.918e-4
0.751, 1.920e-4
0.750, 1.921e-4
0.749, 1.924e-4
0.748, 1.923e-4
0.747, 1.923e-4
0.746, 1.926e-4
0.745, 1.928e-4
0.744, 1.924e-4
0.743, 1.927e-4
0.742, 1.927e-4
0.741, 1.929e-4
0.740, 1.929e-4
0.739, 1.928e-4
0.738, 1.931e-4
0.737, 1.932e-4
0.736, 1.934e-4
0.735, 1.935e-4
0.734, 1.933e-4
0.733, 1.935e-4
0.732, 1.938e-4
0.731, 1.937e-4
0.730, 1.940e-4
0.729, 1.939e-4
0.728, 1.942e-4
0.727, 1.945e-4
0.726, 1.944e-4
0.725, 1.946e-4
0.724, 1.948e-4
0.723, 1.946e-4
0.722, 1.951e-4
0.721, 1.952e-4
0.720, 1.952e-4
0.719, 1.955e-4
0.718, 1.957e-4
0.717, 1.962e-4
0.716, 1.963e-4
0.715, 1.962e-4
0.714, 1.964e-4
0.713, 1.964e-4
0.712, 1.966e-4
0.711, 1.966e-4
0.710, 1.966e-4
0.709, 1.969e-4
0.708, 1.970e-4
0.707, 1.971e-4
0.706, 1.972e-4
0.705, 1.974e-4
0.704, 1.975e-4
0.703, 1.978e-4
0.702, 1.979e-4
0.701, 1.983e-4
0.700, 1.982e-4
0.699, 1.981e-4
0.698, 1.984e-4
0.697, 1.986e-4
0.696, 1.990e-4
0.695, 1.991e-4
0.694, 1.992e-4
0.693, 1.995e-4
0.692, 1.994e-4
0.691, 1.998e-4
0.690, 2.002e-4
0.689, 1.999e-4
0.688, 1.999e-4
0.687, 2.002e-4
0.686, 2.003e-4
0.685, 2.008e-4
0.684, 2.011e-4
0.683, 2.009e-4
0.682, 2.011e-4
0.681, 2.012e-4
0.680, 2.014e-4
0.679, 2.015e-4
0.678, 2.015e-4
0.677, 2.018e-4
0.676, 2.021e-4
0.675, 2.019e-4
0.674, 2.022e-4
0.673, 2.024e-4
0.672, 2.027e-4
0.671, 2.031e-4
0.670, 2.031e-4
0.669, 2.033e-4
0.668, 2.035e-4
0.667, 2.035e-4
0.666, 2.040e-4
0.665, 2.042e-4
0.664, 2.042e-4
0.663, 2.043e-4
0.662, 2.042e-4
0.661, 2.042e-4
0.660, 2.048e-4
0.659, 2.050e-4
0.658, 2.050e-4
0.657, 2.053e-4
0.656, 2.056e-4
0.655, 2.058e-4
0.654, 2.060e-4
0.653, 2.062e-4
0.652, 2.066e-4
0.651, 2.065e-4
0.650, 2.066e-4
0.649, 2.072e-4
0.648, 2.073e-4
0.647, 2.077e-4
0.646, 2.075e-4
0.645, 2.078e-4
0.644, 2.081e-4
0.643, 2.083e-4
0.642, 2.087e-4
0.641, 2.091e-4
0.640, 2.088e-4
0.639, 2.093e-4
0.638, 2.092e-4
0.637, 2.095e-4
0.636, 2.096e-4
0.635, 2.097e-4
0.634, 2.099e-4
0.633, 2.103e-4
0.632, 2.105e-4
0.631, 2.104e-4
0.630, 2.104e-4
0.629, 2.105e-4
0.628, 2.111e-4
0.627, 2.109e-4
0.626, 2.113e-4
0.625, 2.118e-4
0.624, 2.119e-4
0.623, 2.124e-4
0.622, 2.124e-4
0.621, 2.124e-4
0.620, 2.126e-4
0.619, 2.128e-4
0.618, 2.131e-4
0.617, 2.134e-4
0.616, 2.136e-4
0.615, 2.136e-4
0.614, 2.143e-4
0.613, 2.143e-4
0.612, 2.148e-4
0.611, 2.150e-4
0.610, 2.153e-4
0.609, 2.154e-4
0.608, 2.158e-4
0.607, 2.161e-4
0.606, 2.161e-4
0.605, 2.160e-4
0.604, 2.165e-4
0.603, 2.166e-4
0.602, 2.169e-4
0.601, 2.171e-4
0.600, 2.173e-4
0.599, 2.175e-4
0.598, 2.178e-4
0.597, 2.179e-4
0.596, 2.180e-4
0.595, 2.184e-4
0.594, 2.188e-4
0.593, 2.188e-4
0.592, 2.188e-4
0.591, 2.193e-4
0.590, 2.192e-4
0.589, 2.197e-4
0.588, 2.204e-4
0.587, 2.204e-4
0.586, 2.211e-4
0.585, 2.214e-4
0.584, 2.216e-4
0.583, 2.219e-4
0.582, 2.219e-4
0.581, 2.221e-4
0.580, 2.223e-4
0.579, 2.225e-4
0.578, 2.227e-4
0.577, 2.229e-4
0.576, 2.231e-4
0.575, 2.235e-4
0.574, 2.235e-4
0.573, 2.240e-4
0.572, 2.245e-4
0.571, 2.243e-4
0.570, 2.247e-4
0.569, 2.249e-4
0.568, 2.252e-4
0.567, 2.255e-4
0.566, 2.253e-4
0.565, 2.258e-4
0.564, 2.263e-4
0.563, 2.264e-4
0.562, 2.269e-4
0.561, 2.269e-4
0.560, 2.271e-4
0.559, 2.276e-4
0.558, 2.274e-4
0.557, 2.279e-4
0.556, 2.281e-4
0.555, 2.283e-4
0.554, 2.284e-4
0.553, 2.289e-4
0.552, 2.288e-4
0.551, 2.290e-4
0.550, 2.293e-4
0.549, 2.295e-4
0.548, 2.300e-4
0.547, 2.298e-4
0.546, 2.302e-4
0.545, 2.307e-4
0.544, 2.311e-4
0.543, 2.313e-4
0.542, 2.315e-4
0.541, 2.317e-4
0.540, 2.321e-4
0.539, 2.321e-4
0.538, 2.325e-4
0.537, 2.328e-4
0.536, 2.331e-4
0.535, 2.331e-4
0.534, 2.329e-4
0.533, 2.331e-4
0.532, 2.335e-4
0.531, 2.339e-4
0.530, 2.342e-4
0.529, 2.342e-4
0.528, 2.341e-4
0.527, 2.348e-4
0.526, 2.349e-4
0.525, 2.351e-4
0.524, 2.357e-4
0.523, 2.356e-4
0.522, 2.359e-4
0.521, 2.358e-4
0.520, 2.360e-4
0.519, 2.362e-4
0.518, 2.366e-4
0.517, 2.368e-4
0.516, 2.371e-4
0.515, 2.370e-4
0.514, 2.373e-4
0.513, 2.373e-4
0.512, 2.380e-4
0.511, 2.382e-4
0.510, 2.384e-4
0.509, 2.382e-4
0.508, 2.384e-4
0.507, 2.385e-4
0.506, 2.392e-4
0.505, 2.392e-4
0.504, 2.393e-4
0.503, 2.394e-4
0.502, 2.394e-4
0.501, 2.395e-4
0.500, 2.398e-4
0.499, 2.397e-4
0.498, 2.402e-4
0.497, 2.401e-4
0.496, 2.402e-4
0.495, 2.403e-4
0.494, 2.404e-4
0.493, 2.409e-4
0.492, 2.412e-4
0.491, 2.411e-4
0.490, 2.413e-4
0.489, 2.415e-4
0.488, 2.417e-4
0.487, 2.420e-4
0.486, 2.420e-4
0.485, 2.423e-4
0.484, 2.424e-4
0.483, 2.424e-4
0.482, 2.428e-4
0.481, 2.429e-4
0.480, 2.430e-4
0.479, 2.435e-4
0.478, 2.433e-4
0.477, 2.434e-4
0.476, 2.440e-4
0.475, 2.439e-4
0.474, 2.440e-4
0.473, 2.443e-4
0.472, 2.444e-4
0.471, 2.444e-4
0.470, 2.445e-4
0.469, 2.447e-4
0.468, 2.451e-4
0.467, 2.451e-4
0.466, 2.454e-4
0.465, 2.453e-4
0.464, 2.456e-4
0.463, 2.458e-4
0.462, 2.459e-4
0.461, 2.464e-4
0.460, 2.467e-4
0.459, 2.467e-4
0.458, 2.469e-4
0.457, 2.470e-4
0.456, 2.470e-4
0.455, 2.474e-4
0.454, 2.473e-4
0.453, 2.476e-4
0.452, 2.480e-4
0.451, 2.480e-4
0.450, 2.482e-4
0.449, 2.483e-4
0.448, 2.483e-4
0.447, 2.487e-4
0.446, 2.485e-4
0.445, 2.487e-4
0.444, 2.491e-4
0.443, 2.492e-4
0.442, 2.496e-4
0.441, 2.498e-4
0.440, 2.501e-4
0.439, 2.504e-4
0.438, 2.505e-4
0.437, 2.505e-4
0.436, 2.509e-4
0.435, 2.510e-4
0.434, 2.514e-4
0.433, 2.514e-4
0.432, 2.518e-4
0.431, 2.516e-4
0.430, 2.521e-4
0.429, 2.522e-4
0.428, 2.527e-4
0.427, 2.528e-4
0.426, 2.529e-4
0.425, 2.531e-4
0.424, 2.532e-4
0.423, 2.535e-4
0.422, 2.538e-4
0.421, 2.542e-4
0.420, 2.545e-4
0.419, 2.545e-4
0.418, 2.549e-4
0.417, 2.549e-4
0.416, 2.553e-4
0.415, 2.556e-4
0.414, 2.555e-4
0.413, 2.559e-4
0.412, 2.561e-4
0.411, 2.564e-4
0.410, 2.567e-4
0.409, 2.570e-4
0.408, 2.572e-4
0.407, 2.575e-4
0.406, 2.577e-4
0.405, 2.581e-4
0.404, 2.583e-4
0.403, 2.586e-4
0.402, 2.588e-4
0.401, 2.590e-4
0.400, 2.592e-4
0.399, 2.595e-4
0.398, 2.596e-4
0.397, 2.599e-4
0.396, 2.604e-4
0.395, 2.604e-4
0.394, 2.606e-4
0.393, 2.609e-4
0.392, 2.611e-4
0.391, 2.616e-4
0.390, 2.618e-4
0.389, 2.618e-4
0.388, 2.620e-4
0.387, 2.623e-4
0.386, 2.626e-4
0.385, 2.628e-4
0.384, 2.631e-4
0.383, 2.634e-4
0.382, 2.634e-4
0.381, 2.638e-4
0.380, 2.640e-4
0.379, 2.641e-4
0.378, 2.641e-4
0.377, 2.646e-4
0.376, 2.648e-4
0.375, 2.647e-4
0.374, 2.650e-4
0.373, 2.655e-4
0.372, 2.656e-4
0.371, 2.654e-4
0.370, 2.659e-4
0.369, 2.661e-4
0.368, 2.662e-4
0.367, 2.664e-4
0.366, 2.665e-4
0.365, 2.669e-4
0.364, 2.671e-4
0.363, 2.671e-4
0.362, 2.672e-4
0.361, 2.675e-4
0.360, 2.675e-4
0.359, 2.676e-4
0.358, 2.681e-4
0.357, 2.683e-4
0.356, 2.684e-4
0.355, 2.681e-4
0.354, 2.685e-4
0.353, 2.685e-4
0.352, 2.687e-4
0.351, 2.689e-4
0.350, 2.688e-4
0.349, 2.690e-4
0.348, 2.689e-4
0.347, 2.691e-4
0.346, 2.693e-4
0.345, 2.693e-4
0.344, 2.693e-4
0.343, 2.694e-4
0.342, 2.693e-4
0.341, 2.696e-4
0.340, 2.694e-4
0.339, 2.695e-4
0.338, 2.699e-4
0.337, 2.695e-4
0.336, 2.695e-4
0.335, 2.696e-4
0.334, 2.693e-4
0.333, 2.695e-4
0.332, 2.698e-4
0.331, 2.695e-4
0.330, 2.695e-4
0.329, 2.696e-4
0.328, 2.693e-4
0.327, 2.694e-4
0.326, 2.692e-4
0.325, 2.694e-4
0.324, 2.692e-4
0.323, 2.690e-4
0.322, 2.690e-4
0.321, 2.690e-4
0.320, 2.688e-4
0.319, 2.689e-4
0.318, 2.686e-4
0.317, 2.685e-4
0.316, 2.685e-4
0.315, 2.682e-4
0.314, 2.683e-4
0.313, 2.682e-4
0.312, 2.680e-4
0.311, 2.679e-4
0.310, 2.675e-4
0.309, 2.677e-4
0.308, 2.675e-4
0.307, 2.678e-4
0.306, 2.679e-4
0.305, 2.675e-4
0.304, 2.671e-4
0.303, 2.670e-4
0.302, 2.667e-4
0.301, 2.667e-4
0.300, 2.666e-4
0.299, 2.662e-4
0.298, 2.662e-4
0.297, 2.658e-4
0.296, 2.655e-4
0.295, 2.653e-4
0.294, 2.650e-4
0.293, 2.650e-4
0.292, 2.646e-4
0.291, 2.645e-4
0.290, 2.644e-4
0.289, 2.642e-4
0.288, 2.640e-4
0.287, 2.637e-4
0.286, 2.634e-4
0.285, 2.632e-4
0.284, 2.629e-4
0.283, 2.625e-4
0.282, 2.626e-4
0.281, 2.625e-4
0.280, 2.621e-4
0.279, 2.620e-4
0.278, 2.616e-4
0.277, 2.616e-4
0.276, 2.614e-4
0.275, 2.612e-4
0.274, 2.609e-4
0.273, 2.608e-4
0.272, 2.605e-4
0.271, 2.603e-4
0.270, 2.599e-4
0.269, 2.597e-4
0.268, 2.599e-4
0.267, 2.593e-4
0.266, 2.591e-4
0.265, 2.587e-4
0.264, 2.587e-4
0.263, 2.588e-4
0.262, 2.586e-4
0.261, 2.584e-4
0.260, 2.582e-4
0.259, 2.577e-4
0.258, 2.579e-4
0.257, 2.574e-4
0.256, 2.574e-4
0.255, 2.575e-4
0.254, 2.569e-4
0.253, 2.567e-4
0.252, 2.567e-4
0.251, 2.564e-4
0.250, 2.565e-4
0.249, 2.562e-4
0.248, 2.563e-4
0.247, 2.561e-4
0.246, 2.557e-4
0.245, 2.555e-4
0.244, 2.555e-4
0.243, 2.553e-4
0.242, 2.554e-4
0.241, 2.551e-4
0.240, 2.548e-4
0.239, 2.548e-4
0.238, 2.548e-4
0.237, 2.550e-4
0.236, 2.549e-4
0.235, 2.545e-4
0.234, 2.546e-4
0.233, 2.546e-4
0.232, 2.541e-4
0.231, 2.544e-4
0.230, 2.543e-4
0.229, 2.545e-4
0.228, 2.543e-4
0.227, 2.543e-4
0.226, 2.544e-4
0.225, 2.542e-4
0.224, 2.544e-4
0.223, 2.545e-4
0.222, 2.543e-4
0.221, 2.545e-4
0.220, 2.541e-4
0.219, 2.540e-4
0.218, 2.541e-4
0.217, 2.542e-4
0.216, 2.540e-4
0.215, 2.541e-4
0.214, 2.541e-4
0.213, 2.543e-4
0.212, 2.543e-4
0.211, 2.544e-4
0.210, 2.544e-4
0.209, 2.544e-4
0.208, 2.544e-4
0.207, 2.546e-4
0.206, 2.548e-4
0.205, 2.549e-4
0.204, 2.551e-4
0.203, 2.553e-4
0.202, 2.554e-4
0.201, 2.555e-4
0.200, 2.554e-4
0.199, 2.559e-4
0.198, 2.562e-4
0.197, 2.561e-4
0.196, 2.563e-4
0.195, 2.564e-4
0.194, 2.565e-4
0.193, 2.567e-4
0.192, 2.569e-4
0.191, 2.571e-4
0.190, 2.574e-4
0.189, 2.575e-4
0.188, 2.579e-4
0.187, 2.578e-4
0.186, 2.583e-4
0.185, 2.585e-4
0.184, 2.588e-4
0.183, 2.590e-4
0.182, 2.593e-4
0.181, 2.596e-4
0.180, 2.598e-4
0.179, 2.601e-4
0.178, 2.603e-4
0.177, 2.608e-4
0.176, 2.609e-4
0.175, 2.613e-4
0.174, 2.614e-4
0.173, 2.618e-4
0.172, 2.623e-4
0.171, 2.627e-4
0.170, 2.630e-4
0.169, 2.633e-4
0.168, 2.635e-4
0.167, 2.638e-4
0.166, 2.644e-4
0.165, 2.646e-4
0.164, 2.652e-4
0.163, 2.655e-4
0.162, 2.659e-4
0.161, 2.665e-4
0.160, 2.669e-4
0.159, 2.674e-4
0.158, 2.679e-4
0.157, 2.683e-4
0.156, 2.686e-4
0.155, 2.691e-4
0.154, 2.697e-4
0.153, 2.702e-4
0.152, 2.707e-4
0.151, 2.712e-4
0.150, 2.717e-4
0.149, 2.722e-4
0.148, 2.729e-4
0.147, 2.731e-4
0.146, 2.738e-4
0.145, 2.742e-4
0.144, 2.746e-4
0.143, 2.754e-4
0.142, 2.757e-4
0.141, 2.764e-4
0.140, 2.770e-4
0.139, 2.773e-4
0.138, 2.781e-4
0.137, 2.788e-4
0.136, 2.794e-4
0.135, 2.801e-4
0.134, 2.807e-4
0.133, 2.812e-4
0.132, 2.820e-4
0.131, 2.826e-4
0.130, 2.834e-4
0.129, 2.840e-4
0.128, 2.849e-4
0.127, 2.858e-4
0.126, 2.865e-4
0.125, 2.870e-4
0.124, 2.881e-4
0.123, 2.885e-4
0.122, 2.897e-4
0.121, 2.906e-4
0.120, 2.914e-4
0.119, 2.923e-4
0.118, 2.929e-4
0.117, 2.939e-4
0.116, 2.948e-4
0.115, 2.957e-4
0.114, 2.964e-4
0.113, 2.976e-4
0.112, 2.986e-4
0.111, 2.995e-4
0.110, 3.002e-4
0.109, 3.014e-4
0.108, 3.025e-4
0.107, 3.035e-4
0.106, 3.045e-4
0.105, 3.056e-4
0.104, 3.067e-4
0.103, 3.081e-4
0.102, 3.094e-4
0.101, 3.106e-4
0.100, 3.117e-4
0.099, 3.126e-4
0.098, 3.139e-4
0.097, 3.151e-4
0.096, 3.165e-4
0.095, 3.177e-4
0.094, 3.188e-4
0.093, 3.201e-4
0.092, 3.214e-4
0.091, 3.223e-4
0.090, 3.238e-4
0.089, 3.250e-4
0.088, 3.263e-4
0.087, 3.280e-4
0.086, 3.293e-4
0.085, 3.307e-4
0.084, 3.322e-4
0.083, 3.338e-4
0.082, 3.355e-4
0.081, 3.371e-4
0.080, 3.385e-4
0.079, 3.400e-4
0.078, 3.417e-4
0.077, 3.434e-4
0.076, 3.452e-4
0.075, 3.466e-4
0.074, 3.484e-4
0.073, 3.499e-4
0.072, 3.516e-4
0.071, 3.538e-4
0.070, 3.551e-4
0.069, 3.571e-4
0.068, 3.591e-4
0.067, 3.608e-4
0.066, 3.628e-4
0.065, 3.649e-4
0.064, 3.666e-4
0.063, 3.687e-4
0.062, 3.705e-4
0.061, 3.728e-4
0.060, 3.748e-4
0.059, 3.768e-4
0.058, 3.792e-4
0.057, 3.814e-4
0.056, 3.832e-4
0.055, 3.857e-4
0.054, 3.879e-4
0.053, 3.901e-4
0.052, 3.924e-4
0.051, 3.950e-4
0.050, 3.972e-4
0.049, 3.994e-4
0.048, 4.019e-4
0.047, 4.045e-4
0.046, 4.071e-4
0.045, 4.095e-4
0.044, 4.120e-4
0.043, 4.143e-4
0.042, 4.170e-4
0.041, 4.197e-4
0.040, 4.220e-4
0.039, 4.250e-4
0.038, 4.276e-4
0.037, 4.302e-4
0.036, 4.335e-4
0.035, 4.359e-4
0.034, 4.387e-4
0.033, 4.414e-4
0.032, 4.442e-4
0.031, 4.470e-4
0.030, 4.499e-4
0.029, 4.529e-4
0.028, 4.559e-4
0.027, 4.587e-4
0.026, 4.620e-4
0.025, 4.650e-4
0.024, 4.675e-4
0.023, 4.707e-4
0.022, 4.736e-4
0.021, 4.770e-4
0.020, 4.802e-4
0.019, 4.833e-4
0.018, 4.864e-4
0.017, 4.897e-4
0.016, 4.927e-4
0.015, 4.960e-4
0.014, 4.992e-4
0.013, 5.023e-4
0.012, 5.055e-4
0.011, 5.089e-4
0.010, 5.120e-4
0.009, 5.153e-4
0.008, 5.183e-4
0.007, 5.220e-4
0.006, 5.255e-4
0.005, 5.286e-4
0.004, 5.320e-4
0.003, 5.353e-4
0.002, 5.388e-4
0.001, 5.418e-4
0.000, 5.458e-4
-0.001, 5.491e-4
-0.002, 5.522e-4
-0.003, 5.555e-4
-0.004, 5.589e-4
-0.005, 5.621e-4
-0.006, 5.656e-4
-0.007, 5.688e-4
-0.008, 5.719e-4
-0.009, 5.752e-4
-0.010, 5.783e-4
-0.011, 5.817e-4
-0.012, 5.850e-4
-0.013, 5.881e-4
-0.014, 5.913e-4
-0.015, 5.946e-4
-0.016, 5.976e-4
-0.017, 6.007e-4
-0.018, 6.036e-4
-0.019, 6.069e-4
-0.020, 6.103e-4
-0.021, 6.132e-4
-0.022, 6.165e-4
-0.023, 6.193e-4
-0.024, 6.226e-4
-0.025, 6.256e-4
-0.026, 6.289e-4
-0.027, 6.318e-4
-0.028, 6.349e-4
-0.029, 6.373e-4
-0.030, 6.403e-4
-0.031, 6.431e-4
-0.032, 6.461e-4
-0.033, 6.489e-4
-0.034, 6.517e-4
-0.035, 6.544e-4
-0.036, 6.573e-4
-0.037, 6.601e-4
-0.038, 6.627e-4
-0.039, 6.653e-4
-0.040, 6.679e-4
-0.041, 6.706e-4
-0.042, 6.730e-4
-0.043, 6.756e-4
-0.044, 6.780e-4
-0.045, 6.804e-4
-0.046, 6.828e-4
-0.047, 6.855e-4
-0.048, 6.878e-4
-0.049, 6.901e-4
-0.050, 6.924e-4
-0.051, 6.949e-4
-0.052, 6.973e-4
-0.053, 6.994e-4
-0.054, 7.018e-4
-0.055, 7.040e-4
-0.056, 7.063e-4
-0.057, 7.085e-4
-0.058, 7.104e-4
-0.059, 7.127e-4
-0.060, 7.146e-4
-0.061, 7.165e-4
-0.062, 7.185e-4
-0.063, 7.205e-4
-0.064, 7.226e-4
-0.065, 7.249e-4
-0.066, 7.267e-4
-0.067, 7.285e-4
-0.068, 7.304e-4
-0.069, 7.323e-4
-0.070, 7.339e-4
-0.071, 7.357e-4
-0.072, 7.373e-4
-0.073, 7.391e-4
-0.074, 7.405e-4
-0.075, 7.423e-4
-0.076, 7.440e-4
-0.077, 7.454e-4
-0.078, 7.470e-4
-0.079, 7.486e-4
-0.080, 7.500e-4
-0.081, 7.515e-4
-0.082, 7.529e-4
-0.083, 7.543e-4
-0.084, 7.557e-4
-0.085, 7.571e-4
-0.086, 7.582e-4
-0.087, 7.597e-4
-0.088, 7.609e-4
-0.089, 7.620e-4
-0.090, 7.631e-4
-0.091, 7.643e-4
-0.092, 7.655e-4
-0.093, 7.665e-4
-0.094, 7.674e-4
-0.095, 7.685e-4
-0.096, 7.697e-4
-0.097, 7.707e-4
-0.098, 7.715e-4
-0.099, 7.725e-4
